lead_name,0,1,2,3,4,5,6,7,8,9,10,11,12,13,14,15,16,17,18,19,20,21,22,23,24,25,26,27,28,29,30,31,32,33,34,35,36,37,38,39,40,41,42,43,44,45,46,47,48,49,50,51,52,53,54,55,56,57,58,59,60,61,62,63,64,65,66,67,68,69,70,71,72,73,74,75,76,77,78,79,80,81,82,83,84,85,86,87,88,89,90,91,92,93,94,95,96,97,98,99,100,101,102,103,104,105,106,107,108,109,110,111,112,113,114,115,116,117,118,119,120,121,122,123,124,125,126,127,128,129,130,131,132,133,134,135,136,137,138,139,140,141,142,143,144,145,146,147,148,149,150,151,152,153,154,155,156,157,158,159,160,161,162,163,164,165,166,167,168,169,170,171,172,173,174,175,176,177,178,179,180,181,182,183,184,185,186,187,188,189,190,191,192,193,194,195,196,197,198,199,200,201,202,203,204,205,206,207,208,209,210,211,212,213,214,215,216,217,218,219,220,221,222,223,224,225,226,227,228,229,230,231,232,233,234,235,236,237,238,239,240,241,242,243,244,245,246,247,248,249,250,251,252,253,254,255,256,257,258,259,260,261,262,263,264,265,266,267,268,269,270,271,272,273,274,275,276,277,278,279,280,281,282,283,284,285,286,287,288,289,290,291,292,293,294,295,296,297,298,299,300,301,302,303,304,305,306,307,308,309,310,311,312,313,314,315,316,317,318,319,320,321,322,323,324,325,326,327,328,329,330,331,332,333,334,335,336,337,338,339,340,341,342,343,344,345,346,347,348,349,350,351,352,353,354,355,356,357,358,359,360,361,362,363,364,365,366,367,368,369,370,371,372,373,374,375,376,377,378,379,380,381,382,383,384,385,386,387,388,389,390,391,392,393,394,395,396,397,398,399,400,401,402,403,404,405,406,407,408,409,410,411,412,413,414,415,416,417,418,419,420,421,422,423,424,425,426,427,428,429,430,431,432,433,434,435,436,437,438,439,440,441,442,443,444,445,446,447,448,449,450,451,452,453,454,455,456,457,458,459,460,461,462,463,464,465,466,467,468,469,470,471,472,473,474,475,476,477,478,479,480,481,482,483,484,485,486,487,488,489,490,491,492,493,494,495,496,497,498,499,500,501,502,503,504,505,506,507,508,509,510,511,512,513,514,515,516,517,518,519,520,521,522,523,524,525,526,527,528,529,530,531,532,533,534,535,536,537,538,539,540,541,542,543,544,545,546,547,548,549,550,551,552,553,554,555,556,557,558,559,560,561,562,563,564,565,566,567,568,569,570,571,572,573,574,575,576,577,578,579,580,581,582,583,584,585,586,587,588,589,590,591,592,593,594,595,596,597,598,599,600,601,602,603,604,605,606,607,608,609,610,611,612,613,614,615,616,617,618,619,620,621,622,623,624,625,626,627,628,629,630,631,632,633,634,635,636,637,638,639,640,641,642,643,644,645,646,647,648,649,650,651,652,653,654,655,656,657,658,659,660,661,662,663,664,665,666,667,668,669,670,671,672,673,674,675,676,677,678,679,680,681,682,683,684,685,686,687,688,689,690,691,692,693,694,695,696,697,698,699,700,701,702,703,704,705,706,707,708,709,710,711,712,713,714,715,716,717,718,719,720,721,722,723,724,725,726,727,728,729,730,731,732,733,734,735,736,737,738,739,740,741,742,743,744,745,746,747,748,749,750,751,752,753,754,755,756,757,758,759,760,761,762,763,764,765,766,767,768,769,770,771,772,773,774,775,776,777,778,779,780,781,782,783,784,785,786,787,788,789,790,791,792,793,794,795,796,797,798,799,800,801,802,803,804,805,806,807,808,809,810,811,812,813,814,815,816,817,818,819,820,821,822,823,824,825,826,827,828,829,830,831,832,833,834,835,836,837,838,839,840,841,842,843,844,845,846,847,848,849,850,851,852,853,854,855,856,857,858,859,860,861,862,863,864,865,866,867,868,869,870,871,872,873,874,875,876,877,878,879,880,881,882,883,884,885,886,887,888,889,890,891,892,893,894,895,896,897,898,899,900,901,902,903,904,905,906,907,908,909,910,911,912,913,914,915,916,917,918,919,920,921,922,923,924,925,926,927,928,929,930,931,932,933,934,935,936,937,938,939,940,941,942,943,944,945,946,947,948,949,950,951,952,953,954,955,956,957,958,959,960,961,962,963,964,965,966,967,968,969,970,971,972,973,974,975,976,977,978,979,980,981,982,983,984,985,986,987,988,989,990,991,992,993,994,995,996,997,998,999,1000,1001,1002,1003,1004,1005,1006,1007,1008,1009,1010,1011,1012,1013,1014,1015,1016,1017,1018,1019,1020,1021,1022,1023,1024,1025,1026,1027,1028,1029,1030,1031,1032,1033,1034,1035,1036,1037,1038,1039,1040,1041,1042,1043,1044,1045,1046,1047,1048,1049,1050,1051,1052,1053,1054,1055,1056,1057,1058,1059,1060,1061,1062,1063,1064,1065,1066,1067,1068,1069,1070,1071,1072,1073,1074,1075,1076,1077,1078,1079,1080,1081,1082,1083,1084,1085,1086,1087,1088,1089,1090,1091,1092,1093,1094,1095,1096,1097,1098,1099,1100,1101,1102,1103,1104,1105,1106,1107,1108,1109,1110,1111,1112,1113,1114,1115,1116,1117,1118,1119,1120,1121,1122,1123,1124,1125,1126,1127,1128,1129,1130,1131,1132,1133,1134,1135,1136,1137,1138,1139,1140,1141,1142,1143,1144,1145,1146,1147,1148,1149,1150,1151,1152,1153,1154,1155,1156,1157,1158,1159,1160,1161,1162,1163,1164,1165,1166,1167,1168,1169,1170,1171,1172,1173,1174,1175,1176,1177,1178,1179,1180,1181,1182,1183,1184,1185,1186,1187,1188,1189,1190,1191,1192,1193,1194,1195,1196,1197,1198,1199,1200,1201,1202,1203,1204,1205,1206,1207,1208,1209,1210,1211,1212,1213,1214,1215,1216,1217,1218,1219,1220,1221,1222,1223,1224,1225,1226,1227,1228,1229,1230,1231,1232,1233,1234,1235,1236,1237,1238,1239,1240,1241,1242,1243,1244,1245,1246,1247,1248,1249,1250,1251,1252,1253,1254,1255,1256,1257,1258,1259,1260,1261,1262,1263,1264,1265,1266,1267,1268,1269,1270,1271,1272,1273,1274,1275,1276,1277,1278,1279,1280,1281,1282,1283,1284,1285,1286,1287,1288,1289,1290,1291,1292,1293,1294,1295,1296,1297,1298,1299,1300,1301,1302,1303,1304,1305,1306,1307,1308,1309,1310,1311,1312,1313,1314,1315,1316,1317,1318,1319,1320,1321,1322,1323,1324,1325,1326,1327,1328,1329,1330,1331,1332,1333,1334,1335,1336,1337,1338,1339,1340,1341,1342,1343,1344,1345,1346,1347,1348,1349,1350,1351,1352,1353,1354,1355,1356,1357,1358,1359,1360,1361,1362,1363,1364,1365,1366,1367,1368,1369,1370,1371,1372,1373,1374,1375,1376,1377,1378,1379,1380,1381,1382,1383,1384,1385,1386,1387,1388,1389,1390,1391,1392,1393,1394,1395,1396,1397,1398,1399,1400,1401,1402,1403,1404,1405,1406,1407,1408,1409,1410,1411,1412,1413,1414,1415,1416,1417,1418,1419,1420,1421,1422,1423,1424,1425,1426,1427,1428,1429,1430,1431,1432,1433,1434,1435,1436,1437,1438,1439,1440,1441,1442,1443,1444,1445,1446,1447,1448,1449,1450,1451,1452,1453,1454,1455,1456,1457,1458,1459,1460,1461,1462,1463,1464,1465,1466,1467,1468,1469,1470,1471,1472,1473,1474,1475,1476,1477,1478,1479,1480,1481,1482,1483,1484,1485,1486,1487,1488,1489,1490,1491,1492,1493,1494,1495,1496,1497,1498,1499,1500,1501,1502,1503,1504,1505,1506,1507,1508,1509,1510,1511,1512,1513,1514,1515,1516,1517,1518,1519,1520,1521,1522,1523,1524,1525,1526,1527,1528,1529,1530,1531,1532,1533,1534,1535,1536,1537,1538,1539,1540,1541,1542,1543,1544,1545,1546,1547,1548,1549,1550,1551,1552,1553,1554,1555,1556,1557,1558,1559,1560,1561,1562,1563,1564,1565,1566,1567,1568,1569,1570,1571,1572,1573,1574,1575,1576,1577,1578,1579,1580,1581,1582,1583,1584,1585,1586,1587,1588,1589,1590,1591,1592,1593,1594,1595,1596,1597,1598,1599,1600,1601,1602,1603,1604,1605,1606,1607,1608,1609,1610,1611,1612,1613,1614,1615,1616,1617,1618,1619,1620,1621,1622,1623,1624,1625,1626,1627,1628,1629,1630,1631,1632,1633,1634,1635,1636,1637,1638,1639,1640,1641,1642,1643,1644,1645,1646,1647,1648,1649,1650,1651,1652,1653,1654,1655,1656,1657,1658,1659,1660,1661,1662,1663,1664,1665,1666,1667,1668,1669,1670,1671,1672,1673,1674,1675,1676,1677,1678,1679,1680,1681,1682,1683,1684,1685,1686,1687,1688,1689,1690,1691,1692,1693,1694,1695,1696,1697,1698,1699,1700,1701,1702,1703,1704,1705,1706,1707,1708,1709,1710,1711,1712,1713,1714,1715,1716,1717,1718,1719,1720,1721,1722,1723,1724,1725,1726,1727,1728,1729,1730,1731,1732,1733,1734,1735,1736,1737,1738,1739,1740,1741,1742,1743,1744,1745,1746,1747,1748,1749,1750,1751,1752,1753,1754,1755,1756,1757,1758,1759,1760,1761,1762,1763,1764,1765,1766,1767,1768,1769,1770,1771,1772,1773,1774,1775,1776,1777,1778,1779,1780,1781,1782,1783,1784,1785,1786,1787,1788,1789,1790,1791,1792,1793,1794,1795,1796,1797,1798,1799,1800,1801,1802,1803,1804,1805,1806,1807,1808,1809,1810,1811,1812,1813,1814,1815,1816,1817,1818,1819,1820,1821,1822,1823,1824,1825,1826,1827,1828,1829,1830,1831,1832,1833,1834,1835,1836,1837,1838,1839,1840,1841,1842,1843,1844,1845,1846,1847,1848,1849,1850,1851,1852,1853,1854,1855,1856,1857,1858,1859,1860,1861,1862,1863,1864,1865,1866,1867,1868,1869,1870,1871,1872,1873,1874,1875,1876,1877,1878,1879,1880,1881,1882,1883,1884,1885,1886,1887,1888,1889,1890,1891,1892,1893,1894,1895,1896,1897,1898,1899,1900,1901,1902,1903,1904,1905,1906,1907,1908,1909,1910,1911,1912,1913,1914,1915,1916,1917,1918,1919,1920,1921,1922,1923,1924,1925,1926,1927,1928,1929,1930,1931,1932,1933,1934,1935,1936,1937,1938,1939,1940,1941,1942,1943,1944,1945,1946,1947,1948,1949,1950,1951,1952,1953,1954,1955,1956,1957,1958,1959,1960,1961,1962,1963,1964,1965,1966,1967,1968,1969,1970,1971,1972,1973,1974,1975,1976,1977,1978,1979,1980,1981,1982,1983,1984,1985,1986,1987,1988,1989,1990,1991,1992,1993,1994,1995,1996,1997,1998,1999,2000,2001,2002,2003,2004,2005,2006,2007,2008,2009,2010,2011,2012,2013,2014,2015,2016,2017,2018,2019,2020,2021,2022,2023,2024,2025,2026,2027,2028,2029,2030,2031,2032,2033,2034,2035,2036,2037,2038,2039,2040,2041,2042,2043,2044,2045,2046,2047,2048,2049,2050,2051,2052,2053,2054,2055,2056,2057,2058,2059,2060,2061,2062,2063,2064,2065,2066,2067,2068,2069,2070,2071,2072,2073,2074,2075,2076,2077,2078,2079,2080,2081,2082,2083,2084,2085,2086,2087,2088,2089,2090,2091,2092,2093,2094,2095,2096,2097,2098,2099,2100,2101,2102,2103,2104,2105,2106,2107,2108,2109,2110,2111,2112,2113,2114,2115,2116,2117,2118,2119,2120,2121,2122,2123,2124,2125,2126,2127,2128,2129,2130,2131,2132,2133,2134,2135,2136,2137,2138,2139,2140,2141,2142,2143,2144,2145,2146,2147,2148,2149,2150,2151,2152,2153,2154,2155,2156,2157,2158,2159,2160,2161,2162,2163,2164,2165,2166,2167,2168,2169,2170,2171,2172,2173,2174,2175,2176,2177,2178,2179,2180,2181,2182,2183,2184,2185,2186,2187,2188,2189,2190,2191,2192,2193,2194,2195,2196,2197,2198,2199,2200,2201,2202,2203,2204,2205,2206,2207,2208,2209,2210,2211,2212,2213,2214,2215,2216,2217,2218,2219,2220,2221,2222,2223,2224,2225,2226,2227,2228,2229,2230,2231,2232,2233,2234,2235,2236,2237,2238,2239,2240,2241,2242,2243,2244,2245,2246,2247,2248,2249,2250,2251,2252,2253,2254,2255,2256,2257,2258,2259,2260,2261,2262,2263,2264,2265,2266,2267,2268,2269,2270,2271,2272,2273,2274,2275,2276,2277,2278,2279,2280,2281,2282,2283,2284,2285,2286,2287,2288,2289,2290,2291,2292,2293,2294,2295,2296,2297,2298,2299,2300,2301,2302,2303,2304,2305,2306,2307,2308,2309,2310,2311,2312,2313,2314,2315,2316,2317,2318,2319,2320,2321,2322,2323,2324,2325,2326,2327,2328,2329,2330,2331,2332,2333,2334,2335,2336,2337,2338,2339,2340,2341,2342,2343,2344,2345,2346,2347,2348,2349,2350,2351,2352,2353,2354,2355,2356,2357,2358,2359,2360,2361,2362,2363,2364,2365,2366,2367,2368,2369,2370,2371,2372,2373,2374,2375,2376,2377,2378,2379,2380,2381,2382,2383,2384,2385,2386,2387,2388,2389,2390,2391,2392,2393,2394,2395,2396,2397,2398,2399,2400,2401,2402,2403,2404,2405,2406,2407,2408,2409,2410,2411,2412,2413,2414,2415,2416,2417,2418,2419,2420,2421,2422,2423,2424,2425,2426,2427,2428,2429,2430,2431,2432,2433,2434,2435,2436,2437,2438,2439,2440,2441,2442,2443,2444,2445,2446,2447,2448,2449,2450,2451,2452,2453,2454,2455,2456,2457,2458,2459,2460,2461,2462,2463,2464,2465,2466,2467,2468,2469,2470,2471,2472,2473,2474,2475,2476,2477,2478,2479,2480,2481,2482,2483,2484,2485,2486,2487,2488,2489,2490,2491,2492,2493,2494,2495,2496,2497,2498,2499,2500,2501,2502,2503,2504,2505,2506,2507,2508,2509,2510,2511,2512,2513,2514,2515,2516,2517,2518,2519,2520,2521,2522,2523,2524,2525,2526,2527,2528,2529,2530,2531,2532,2533,2534,2535,2536,2537,2538,2539,2540,2541,2542,2543,2544,2545,2546,2547,2548,2549,2550,2551,2552,2553,2554,2555,2556,2557,2558,2559,2560,2561,2562,2563,2564,2565,2566,2567,2568,2569,2570,2571,2572,2573,2574,2575,2576,2577,2578,2579,2580,2581,2582,2583,2584,2585,2586,2587,2588,2589,2590,2591,2592,2593,2594,2595,2596,2597,2598,2599,2600,2601,2602,2603,2604,2605,2606,2607,2608,2609,2610,2611,2612,2613,2614,2615,2616,2617,2618,2619,2620,2621,2622,2623,2624,2625,2626,2627,2628,2629,2630,2631,2632,2633,2634,2635,2636,2637,2638,2639,2640,2641,2642,2643,2644,2645,2646,2647,2648,2649,2650,2651,2652,2653,2654,2655,2656,2657,2658,2659,2660,2661,2662,2663,2664,2665,2666,2667,2668,2669,2670,2671,2672,2673,2674,2675,2676,2677,2678,2679,2680,2681,2682,2683,2684,2685,2686,2687,2688,2689,2690,2691,2692,2693,2694,2695,2696,2697,2698,2699,2700,2701,2702,2703,2704,2705,2706,2707,2708,2709,2710,2711,2712,2713,2714,2715,2716,2717,2718,2719,2720,2721,2722,2723,2724,2725,2726,2727,2728,2729,2730,2731,2732,2733,2734,2735,2736,2737,2738,2739,2740,2741,2742,2743,2744,2745,2746,2747,2748,2749,2750,2751,2752,2753,2754,2755,2756,2757,2758,2759,2760,2761,2762,2763,2764,2765,2766,2767,2768,2769,2770,2771,2772,2773,2774,2775,2776,2777,2778,2779,2780,2781,2782,2783,2784,2785,2786,2787,2788,2789,2790,2791,2792,2793,2794,2795,2796,2797,2798,2799,2800,2801,2802,2803,2804,2805,2806,2807,2808,2809,2810,2811,2812,2813,2814,2815,2816,2817,2818,2819,2820,2821,2822,2823,2824,2825,2826,2827,2828,2829,2830,2831,2832,2833,2834,2835,2836,2837,2838,2839,2840,2841,2842,2843,2844,2845,2846,2847,2848,2849,2850,2851,2852,2853,2854,2855,2856,2857,2858,2859,2860,2861,2862,2863,2864,2865,2866,2867,2868,2869,2870,2871,2872,2873,2874,2875,2876,2877,2878,2879,2880,2881,2882,2883,2884,2885,2886,2887,2888,2889,2890,2891,2892,2893,2894,2895,2896,2897,2898,2899,2900,2901,2902,2903,2904,2905,2906,2907,2908,2909,2910,2911,2912,2913,2914,2915,2916,2917,2918,2919,2920,2921,2922,2923,2924,2925,2926,2927,2928,2929,2930,2931,2932,2933,2934,2935,2936,2937,2938,2939,2940,2941,2942,2943,2944,2945,2946,2947,2948,2949,2950,2951,2952,2953,2954,2955,2956,2957,2958,2959,2960,2961,2962,2963,2964,2965,2966,2967,2968,2969,2970,2971,2972,2973,2974,2975,2976,2977,2978,2979,2980,2981,2982,2983,2984,2985,2986,2987,2988,2989,2990,2991,2992,2993,2994,2995,2996,2997,2998,2999,3000,3001,3002,3003,3004,3005,3006,3007,3008,3009,3010,3011,3012,3013,3014,3015,3016,3017,3018,3019,3020,3021,3022,3023,3024,3025,3026,3027,3028,3029,3030,3031,3032,3033,3034,3035,3036,3037,3038,3039,3040,3041,3042,3043,3044,3045,3046,3047,3048,3049,3050,3051,3052,3053,3054,3055,3056,3057,3058,3059,3060,3061,3062,3063,3064,3065,3066,3067,3068,3069,3070,3071,3072,3073,3074,3075,3076,3077,3078,3079,3080,3081,3082,3083,3084,3085,3086,3087,3088,3089,3090,3091,3092,3093,3094,3095,3096,3097,3098,3099,3100,3101,3102,3103,3104,3105,3106,3107,3108,3109,3110,3111,3112,3113,3114,3115,3116,3117,3118,3119,3120,3121,3122,3123,3124,3125,3126,3127,3128,3129,3130,3131,3132,3133,3134,3135,3136,3137,3138,3139,3140,3141,3142,3143,3144,3145,3146,3147,3148,3149,3150,3151,3152,3153,3154,3155,3156,3157,3158,3159,3160,3161,3162,3163,3164,3165,3166,3167,3168,3169,3170,3171,3172,3173,3174,3175,3176,3177,3178,3179,3180,3181,3182,3183,3184,3185,3186,3187,3188,3189,3190,3191,3192,3193,3194,3195,3196,3197,3198,3199,3200,3201,3202,3203,3204,3205,3206,3207,3208,3209,3210,3211,3212,3213,3214,3215,3216,3217,3218,3219,3220,3221,3222,3223,3224,3225,3226,3227,3228,3229,3230,3231,3232,3233,3234,3235,3236,3237,3238,3239,3240,3241,3242,3243,3244,3245,3246,3247,3248,3249,3250,3251,3252,3253,3254,3255,3256,3257,3258,3259,3260,3261,3262,3263,3264,3265,3266,3267,3268,3269,3270,3271,3272,3273,3274,3275,3276,3277,3278,3279,3280,3281,3282,3283,3284,3285,3286,3287,3288,3289,3290,3291,3292,3293,3294,3295,3296,3297,3298,3299,3300,3301,3302,3303,3304,3305,3306,3307,3308,3309,3310,3311,3312,3313,3314,3315,3316,3317,3318,3319,3320,3321,3322,3323,3324,3325,3326,3327,3328,3329,3330,3331,3332,3333,3334,3335,3336,3337,3338,3339,3340,3341,3342,3343,3344,3345,3346,3347,3348,3349,3350,3351,3352,3353,3354,3355,3356,3357,3358,3359,3360,3361,3362,3363,3364,3365,3366,3367,3368,3369,3370,3371,3372,3373,3374,3375,3376,3377,3378,3379,3380,3381,3382,3383,3384,3385,3386,3387,3388,3389,3390,3391,3392,3393,3394,3395,3396,3397,3398,3399,3400,3401,3402,3403,3404,3405,3406,3407,3408,3409,3410,3411,3412,3413,3414,3415,3416,3417,3418,3419,3420,3421,3422,3423,3424,3425,3426,3427,3428,3429,3430,3431,3432,3433,3434,3435,3436,3437,3438,3439,3440,3441,3442,3443,3444,3445,3446,3447,3448,3449,3450,3451,3452,3453,3454,3455,3456,3457,3458,3459,3460,3461,3462,3463,3464,3465,3466,3467,3468,3469,3470,3471,3472,3473,3474,3475,3476,3477,3478,3479,3480,3481,3482,3483,3484,3485,3486,3487,3488,3489,3490,3491,3492,3493,3494,3495,3496,3497,3498,3499,3500,3501,3502,3503,3504,3505,3506,3507,3508,3509,3510,3511,3512,3513,3514,3515,3516,3517,3518,3519,3520,3521,3522,3523,3524,3525,3526,3527,3528,3529,3530,3531,3532,3533,3534,3535,3536,3537,3538,3539,3540,3541,3542,3543,3544,3545,3546,3547,3548,3549,3550,3551,3552,3553,3554,3555,3556,3557,3558,3559,3560,3561,3562,3563,3564,3565,3566,3567,3568,3569,3570,3571,3572,3573,3574,3575,3576,3577,3578,3579,3580,3581,3582,3583,3584,3585,3586,3587,3588,3589,3590,3591,3592,3593,3594,3595,3596,3597,3598,3599,3600,3601,3602,3603,3604,3605,3606,3607,3608,3609,3610,3611,3612,3613,3614,3615,3616,3617,3618,3619,3620,3621,3622,3623,3624,3625,3626,3627,3628,3629,3630,3631,3632,3633,3634,3635,3636,3637,3638,3639,3640,3641,3642,3643,3644,3645,3646,3647,3648,3649,3650,3651,3652,3653,3654,3655,3656,3657,3658,3659,3660,3661,3662,3663,3664,3665,3666,3667,3668,3669,3670,3671,3672,3673,3674,3675,3676,3677,3678,3679,3680,3681,3682,3683,3684,3685,3686,3687,3688,3689,3690,3691,3692,3693,3694,3695,3696,3697,3698,3699,3700,3701,3702,3703,3704,3705,3706,3707,3708,3709,3710,3711,3712,3713,3714,3715,3716,3717,3718,3719,3720,3721,3722,3723,3724,3725,3726,3727,3728,3729,3730,3731,3732,3733,3734,3735,3736,3737,3738,3739,3740,3741,3742,3743,3744,3745,3746,3747,3748,3749,3750,3751,3752,3753,3754,3755,3756,3757,3758,3759,3760,3761,3762,3763,3764,3765,3766,3767,3768,3769,3770,3771,3772,3773,3774,3775,3776,3777,3778,3779,3780,3781,3782,3783,3784,3785,3786,3787,3788,3789,3790,3791,3792,3793,3794,3795,3796,3797,3798,3799,3800,3801,3802,3803,3804,3805,3806,3807,3808,3809,3810,3811,3812,3813,3814,3815,3816,3817,3818,3819,3820,3821,3822,3823,3824,3825,3826,3827,3828,3829,3830,3831,3832,3833,3834,3835,3836,3837,3838,3839,3840,3841,3842,3843,3844,3845,3846,3847,3848,3849,3850,3851,3852,3853,3854,3855,3856,3857,3858,3859,3860,3861,3862,3863,3864,3865,3866,3867,3868,3869,3870,3871,3872,3873,3874,3875,3876,3877,3878,3879,3880,3881,3882,3883,3884,3885,3886,3887,3888,3889,3890,3891,3892,3893,3894,3895,3896,3897,3898,3899,3900,3901,3902,3903,3904,3905,3906,3907,3908,3909,3910,3911,3912,3913,3914,3915,3916,3917,3918,3919,3920,3921,3922,3923,3924,3925,3926,3927,3928,3929,3930,3931,3932,3933,3934,3935,3936,3937,3938,3939,3940,3941,3942,3943,3944,3945,3946,3947,3948,3949,3950,3951,3952,3953,3954,3955,3956,3957,3958,3959,3960,3961,3962,3963,3964,3965,3966,3967,3968,3969,3970,3971,3972,3973,3974,3975,3976,3977,3978,3979,3980,3981,3982,3983,3984,3985,3986,3987,3988,3989,3990,3991,3992,3993,3994,3995,3996,3997,3998,3999,4000,4001,4002,4003,4004,4005,4006,4007,4008,4009,4010,4011,4012,4013,4014,4015,4016,4017,4018,4019,4020,4021,4022,4023,4024,4025,4026,4027,4028,4029,4030,4031,4032,4033,4034,4035,4036,4037,4038,4039,4040,4041,4042,4043,4044,4045,4046,4047,4048,4049,4050,4051,4052,4053,4054,4055,4056,4057,4058,4059,4060,4061,4062,4063,4064,4065,4066,4067,4068,4069,4070,4071,4072,4073,4074,4075,4076,4077,4078,4079,4080,4081,4082,4083,4084,4085,4086,4087,4088,4089,4090,4091,4092,4093,4094,4095,4096,4097,4098,4099,4100,4101,4102,4103,4104,4105,4106,4107,4108,4109,4110,4111,4112,4113,4114,4115,4116,4117,4118,4119,4120,4121,4122,4123,4124,4125,4126,4127,4128,4129,4130,4131,4132,4133,4134,4135,4136,4137,4138,4139,4140,4141,4142,4143,4144,4145,4146,4147,4148,4149,4150,4151,4152,4153,4154,4155,4156,4157,4158,4159,4160,4161,4162,4163,4164,4165,4166,4167,4168,4169,4170,4171,4172,4173,4174,4175,4176,4177,4178,4179,4180,4181,4182,4183,4184,4185,4186,4187,4188,4189,4190,4191,4192,4193,4194,4195,4196,4197,4198,4199,4200,4201,4202,4203,4204,4205,4206,4207,4208,4209,4210,4211,4212,4213,4214,4215,4216,4217,4218,4219,4220,4221,4222,4223,4224,4225,4226,4227,4228,4229,4230,4231,4232,4233,4234,4235,4236,4237,4238,4239,4240,4241,4242,4243,4244,4245,4246,4247,4248,4249,4250,4251,4252,4253,4254,4255,4256,4257,4258,4259,4260,4261,4262,4263,4264,4265,4266,4267,4268,4269,4270,4271,4272,4273,4274,4275,4276,4277,4278,4279,4280,4281,4282,4283,4284,4285,4286,4287,4288,4289,4290,4291,4292,4293,4294,4295,4296,4297,4298,4299,4300,4301,4302,4303,4304,4305,4306,4307,4308,4309,4310,4311,4312,4313,4314,4315,4316,4317,4318,4319,4320,4321,4322,4323,4324,4325,4326,4327,4328,4329,4330,4331,4332,4333,4334,4335,4336,4337,4338,4339,4340,4341,4342,4343,4344,4345,4346,4347,4348,4349,4350,4351,4352,4353,4354,4355,4356,4357,4358,4359,4360,4361,4362,4363,4364,4365,4366,4367,4368,4369,4370,4371,4372,4373,4374,4375,4376,4377,4378,4379,4380,4381,4382,4383,4384,4385,4386,4387,4388,4389,4390,4391,4392,4393,4394,4395,4396,4397,4398,4399,4400,4401,4402,4403,4404,4405,4406,4407,4408,4409,4410,4411,4412,4413,4414,4415,4416,4417,4418,4419,4420,4421,4422,4423,4424,4425,4426,4427,4428,4429,4430,4431,4432,4433,4434,4435,4436,4437,4438,4439,4440,4441,4442,4443,4444,4445,4446,4447,4448,4449,4450,4451,4452,4453,4454,4455,4456,4457,4458,4459,4460,4461,4462,4463,4464,4465,4466,4467,4468,4469,4470,4471,4472,4473,4474,4475,4476,4477,4478,4479,4480,4481,4482,4483,4484,4485,4486,4487,4488,4489,4490,4491,4492,4493,4494,4495,4496,4497,4498,4499,4500,4501,4502,4503,4504,4505,4506,4507,4508,4509,4510,4511,4512,4513,4514,4515,4516,4517,4518,4519,4520,4521,4522,4523,4524,4525,4526,4527,4528,4529,4530,4531,4532,4533,4534,4535,4536,4537,4538,4539,4540,4541,4542,4543,4544,4545,4546,4547,4548,4549,4550,4551,4552,4553,4554,4555,4556,4557,4558,4559,4560,4561,4562,4563,4564,4565,4566,4567,4568,4569,4570,4571,4572,4573,4574,4575,4576,4577,4578,4579,4580,4581,4582,4583,4584,4585,4586,4587,4588,4589,4590,4591,4592,4593,4594,4595,4596,4597,4598,4599,4600,4601,4602,4603,4604,4605,4606,4607,4608,4609,4610,4611,4612,4613,4614,4615,4616,4617,4618,4619,4620,4621,4622,4623,4624,4625,4626,4627,4628,4629,4630,4631,4632,4633,4634,4635,4636,4637,4638,4639,4640,4641,4642,4643,4644,4645,4646,4647,4648,4649,4650,4651,4652,4653,4654,4655,4656,4657,4658,4659,4660,4661,4662,4663,4664,4665,4666,4667,4668,4669,4670,4671,4672,4673,4674,4675,4676,4677,4678,4679,4680,4681,4682,4683,4684,4685,4686,4687,4688,4689,4690,4691,4692,4693,4694,4695,4696,4697,4698,4699,4700,4701,4702,4703,4704,4705,4706,4707,4708,4709,4710,4711,4712,4713,4714,4715,4716,4717,4718,4719,4720,4721,4722,4723,4724,4725,4726,4727,4728,4729,4730,4731,4732,4733,4734,4735,4736,4737,4738,4739,4740,4741,4742,4743,4744,4745,4746,4747,4748,4749,4750,4751,4752,4753,4754,4755,4756,4757,4758,4759,4760,4761,4762,4763,4764,4765,4766,4767,4768,4769,4770,4771,4772,4773,4774,4775,4776,4777,4778,4779,4780,4781,4782,4783,4784,4785,4786,4787,4788,4789,4790,4791,4792,4793,4794,4795,4796,4797,4798,4799,4800,4801,4802,4803,4804,4805,4806,4807,4808,4809,4810,4811,4812,4813,4814,4815,4816,4817,4818,4819,4820,4821,4822,4823,4824,4825,4826,4827,4828,4829,4830,4831,4832,4833,4834,4835,4836,4837,4838,4839,4840,4841,4842,4843,4844,4845,4846,4847,4848,4849,4850,4851,4852,4853,4854,4855,4856,4857,4858,4859,4860,4861,4862,4863,4864,4865,4866,4867,4868,4869,4870,4871,4872,4873,4874,4875,4876,4877,4878,4879,4880,4881,4882,4883,4884,4885,4886,4887,4888,4889,4890,4891,4892,4893,4894,4895,4896,4897,4898,4899,4900,4901,4902,4903,4904,4905,4906,4907,4908,4909,4910,4911,4912,4913,4914,4915,4916,4917,4918,4919,4920,4921,4922,4923,4924,4925,4926,4927,4928,4929,4930,4931,4932,4933,4934,4935,4936,4937,4938,4939,4940,4941,4942,4943,4944,4945,4946,4947,4948,4949,4950,4951,4952,4953,4954,4955,4956,4957,4958,4959,4960,4961,4962,4963,4964,4965,4966,4967,4968,4969,4970,4971,4972,4973,4974,4975,4976,4977,4978,4979,4980,4981,4982,4983,4984,4985,4986,4987,4988,4989,4990,4991,4992,4993,4994,4995,4996,4997,4998,4999
I,0.003493,0.003516,0.004055,-0.012950,-0.002213,-0.002288,0.005751,0.014997,-0.015878,-0.001875,0.022222,-0.011154,-0.012334,0.003035,0.012666,0.000171,0.019934,0.012852,0.012627,0.008312,0.034915,-0.003077,-0.030053,0.024064,-0.006865,0.001618,0.019643,-0.024034,-0.018775,-0.024019,-0.011912,0.006595,0.007863,0.004144,-0.021191,-0.034652,0.000815,-0.007077,0.006891,0.010529,0.002074,0.011402,0.003438,0.007951,-0.010570,-0.002694,0.002952,0.012308,-0.005906,0.007818,-0.003988,-0.001763,0.012443,-0.029896,-0.019447,-0.022233,-0.035004,-0.010174,0.011242,-0.004273,0.002967,0.016338,0.019915,-0.001037,0.020304,0.001382,-0.012561,-0.008916,-0.022208,-0.013322,0.016348,0.021335,0.009803,-0.012808,-0.011488,0.002685,0.007803,-0.003607,-0.038382,0.039962,-0.009281,-0.013195,-0.019460,0.004132,0.017488,0.009507,0.018025,0.051934,0.017732,-0.008668,-0.030796,0.035734,0.025619,0.024543,0.001002,-0.004710,0.032946,0.061191,0.062094,0.012056,0.034620,0.050631,0.028883,0.064895,0.053427,0.074318,0.052935,0.053981,0.061865,0.044806,0.085604,0.094175,0.133184,0.136134,0.147040,0.128244,0.158335,0.114044,0.150744,0.169159,0.163835,0.186738,0.153260,0.145151,0.177251,0.161376,0.152669,0.104245,0.106353,0.092567,0.109638,0.085158,0.105526,0.056741,0.083193,0.091420,0.056145,0.055260,0.039598,0.029343,0.043690,-0.016874,0.035150,-0.010450,0.004360,0.054735,0.045845,0.024920,-0.002232,-0.030917,0.011678,0.024948,-0.000324,-0.012883,0.008776,0.005365,-0.000732,0.015501,0.045173,0.026581,0.041120,0.013942,0.007788,0.017403,0.040310,0.024214,-0.023852,0.051316,0.024784,0.032846,-0.011102,0.046771,0.015483,0.032223,0.047910,0.049597,0.005554,-0.002132,0.034310,0.003830,0.056134,0.022540,0.028137,-0.018973,-0.063198,-0.078513,-0.069144,-0.017223,0.011818,0.133799,0.230271,0.345594,0.485034,0.688675,0.837886,0.964702,1.045629,0.995961,0.938466,0.778235,0.680403,0.494756,0.337313,0.177752,0.057480,-0.013748,-0.094601,-0.132760,-0.153133,-0.108568,-0.049260,-0.020896,0.029815,0.029372,0.046697,-0.003758,0.004748,0.014352,0.001792,0.073328,-0.007952,0.066140,0.031543,0.044692,0.043753,-0.007885,0.013600,0.015216,0.025323,0.035407,0.040532,-0.007267,0.026687,0.070909,0.065356,0.018771,0.050066,0.094894,0.023623,0.018984,0.063220,0.051065,0.094969,0.063163,0.008859,0.043777,0.089157,0.122231,0.061221,0.061655,0.119666,0.078628,0.083437,0.086825,0.106262,0.096575,0.119269,0.111035,0.166981,0.130364,0.141681,0.127741,0.167437,0.147681,0.179941,0.166745,0.192996,0.229326,0.181465,0.232569,0.216059,0.229209,0.289546,0.252367,0.254687,0.293436,0.303802,0.274839,0.266607,0.294943,0.275639,0.303729,0.295893,0.368081,0.356908,0.275310,0.319681,0.317165,0.304884,0.313102,0.330871,0.301946,0.264526,0.259864,0.284844,0.295570,0.269453,0.283835,0.250327,0.236221,0.230021,0.273386,0.214896,0.225524,0.250266,0.241473,0.179130,0.172395,0.185556,0.207341,0.121911,0.128938,0.171666,0.141755,0.087489,0.134640,0.095549,0.095450,0.078954,0.114250,0.085498,0.129817,0.105164,0.082837,0.073294,0.077603,0.069315,0.060717,0.050314,0.040098,0.078376,0.084391,0.069345,0.015295,0.006730,0.060046,0.031798,0.052160,-0.040396,0.030970,0.021164,-0.033289,-0.001752,0.012117,0.017826,0.030048,0.012536,-0.002821,0.018930,0.060334,-0.048398,-0.003042,0.026483,0.016639,0.016388,-0.020603,0.029918,0.030473,-0.017355,0.025534,-0.012833,-0.013206,0.001129,-0.000872,0.020263,0.020050,0.060285,-0.001813,-0.004550,0.028925,0.039274,0.028821,0.014158,-0.007725,-0.022402,0.033344,-0.014533,0.030332,0.000273,0.033232,0.023065,0.052703,0.031876,-0.049163,-0.029844,-0.002669,0.012447,0.018154,-0.011538,-0.008174,-0.002032,0.030861,-0.012700,-0.015784,-0.004935,0.024610,0.030866,-0.048455,0.021949,0.037180,0.008452,0.036165,-0.025971,-0.003435,-0.004280,0.044782,0.009324,0.005914,0.006140,0.019058,-0.015685,0.013600,0.004752,0.027307,0.023150,0.022409,0.011745,0.023553,0.050851,0.008005,-0.001707,-0.019145,0.033670,0.032832,0.011399,0.010247,0.031021,0.061450,0.054981,0.060071,0.057547,0.070273,0.062392,0.061588,0.090694,0.050375,0.073729,0.106241,0.109994,0.092744,0.159631,0.137964,0.180329,0.133697,0.148548,0.147196,0.152669,0.175950,0.176079,0.164366,0.154785,0.156046,0.112508,0.098085,0.100900,0.090387,0.103526,0.100643,0.091512,0.060093,0.077881,0.069110,0.054309,0.063652,0.015697,0.026754,0.051223,-0.006834,0.008435,-0.008516,0.027222,0.034741,0.030653,0.053925,-0.019787,0.019490,0.043252,-0.028275,-0.012544,-0.015783,-0.011616,0.023885,0.025140,0.041569,0.041425,0.043295,0.036484,0.030222,0.016714,0.005902,0.021358,0.086449,0.002233,0.020670,0.042189,0.006362,-0.011810,0.038574,0.013977,0.032529,0.024649,0.060072,0.026046,-0.024459,0.037524,0.012586,0.024938,0.029745,0.012179,0.006539,-0.038934,-0.073348,-0.062855,-0.029711,0.013808,0.141782,0.217541,0.353407,0.501107,0.649693,0.798567,0.958742,1.033966,0.989963,0.907520,0.782925,0.699224,0.489392,0.335218,0.180019,0.075146,0.005986,-0.106085,-0.171052,-0.167210,-0.134566,-0.068718,-0.024627,0.040188,0.016470,0.059618,0.007823,-0.007167,0.017605,-0.007747,0.076326,0.015408,0.043886,0.036648,0.039147,0.069205,0.024882,0.011790,0.020672,0.025262,0.013415,0.016528,0.018716,0.029916,0.082189,0.058551,0.058651,0.054271,0.088026,0.020188,0.033432,0.056569,0.060662,0.074208,0.057045,0.063716,0.033500,0.104027,0.099630,0.071771,0.071295,0.118274,0.084664,0.101426,0.116754,0.107035,0.094826,0.114422,0.146495,0.173276,0.145637,0.174216,0.124396,0.181817,0.161231,0.152838,0.178393,0.148555,0.231036,0.136034,0.199650,0.230837,0.242547,0.251670,0.257294,0.311437,0.262011,0.299206,0.280889,0.301780,0.323853,0.281898,0.291543,0.310947,0.358854,0.328569,0.293889,0.298060,0.300240,0.302823,0.313919,0.331408,0.296064,0.299738,0.242403,0.275077,0.284423,0.265881,0.237564,0.273540,0.234363,0.202269,0.289864,0.223269,0.212952,0.264603,0.245789,0.184359,0.181392,0.183449,0.221623,0.169685,0.180088,0.184157,0.147950,0.131251,0.134370,0.093282,0.108120,0.111063,0.100824,0.069318,0.087861,0.108370,0.077067,0.080902,0.075402,0.054316,0.053285,0.063816,0.028107,0.107197,0.065018,0.022043,0.006502,-0.002214,0.056118,0.031376,0.032826,0.002676,0.048469,0.037641,0.007664,0.021944,-0.005775,0.015376,-0.019350,0.016753,0.012572,0.035467,0.062411,-0.030717,0.003112,0.025382,0.012043,0.006655,-0.005606,0.011027,0.058084,-0.007013,0.014372,0.020014,0.020725,-0.007628,-0.007042,0.022709,0.013428,0.051503,0.018063,0.024462,0.024142,0.014296,0.026227,0.039325,-0.011283,0.016471,0.028875,-0.009240,0.023876,0.009759,0.026755,0.042504,0.034190,0.036754,-0.034530,0.002961,-0.033774,0.001456,0.055140,0.015200,-0.012613,-0.032714,0.000457,-0.044337,-0.023901,0.011864,0.044223,0.055774,-0.051309,0.028756,0.006134,0.006523,0.038173,-0.038550,-0.009733,-0.006125,-0.020972,-0.023154,0.009799,-0.004151,-0.008941,0.021846,0.021205,-0.013303,-0.001916,0.001014,0.041981,0.008101,0.012964,0.007711,0.042989,0.009005,0.003789,0.004382,-0.002514,0.021580,-0.007991,0.001176,0.066058,0.010526,0.018785,-0.012718,0.002441,0.026985,0.009355,-0.003564,0.014262,0.022296,0.037207,0.016109,0.017770,0.032264,0.023240,0.038030,0.057136,0.049763,0.096179,0.063959,0.074166,0.061498,0.048154,0.088538,0.088285,0.124851,0.117070,0.180798,0.123954,0.165000,0.116978,0.148022,0.185654,0.134130,0.140757,0.162242,0.145274,0.148637,0.165126,0.125407,0.118158,0.113094,0.096179,0.126634,0.100940,0.090650,0.079981,0.074869,0.075160,0.072741,0.022791,0.011523,0.016167,0.024207,0.006778,0.017574,0.004635,0.013873,0.071139,0.059443,0.029536,0.014852,-0.003687,-0.008792,-0.013112,-0.021815,-0.005763,-0.022204,0.017349,0.005957,0.019502,0.052726,-0.005089,0.048771,-0.008086,0.027606,0.003776,-0.004770,0.034023,-0.005056,0.040474,0.025539,0.034766,0.010649,0.021096,0.024763,0.057357,0.053847,0.036604,0.005773,0.026870,0.011651,0.007478,0.039279,0.036925,0.009384,0.007183,-0.061513,-0.063901,-0.069943,0.013286,0.018969,0.150901,0.225323,0.339754,0.489459,0.638297,0.807276,0.931767,1.003534,0.973584,0.927814,0.778875,0.704368,0.512224,0.364536,0.182905,0.078671,-0.001757,-0.108265,-0.125134,-0.133157,-0.130314,-0.077193,-0.036263,0.040907,0.026051,0.031990,0.018362,0.014326,0.019695,0.038566,0.089635,-0.001149,0.071351,0.004859,0.064153,0.039321,0.022082,0.003830,0.017049,0.018015,0.039201,0.033324,-0.001571,0.043778,0.056497,0.031761,0.048724,0.045752,0.093670,0.041166,0.053190,0.071035,0.070810,0.076072,0.058794,0.033751,0.023505,0.107751,0.112868,0.079538,0.094259,0.133289,0.061560,0.082311,0.102755,0.098542,0.103093,0.140041,0.137847,0.157016,0.160367,0.128361,0.086823,0.175750,0.157797,0.161930,0.153459,0.192165,0.255345,0.203123,0.228048,0.217475,0.229465,0.237168,0.271841,0.303561,0.245638,0.255641,0.263556,0.281179,0.300402,0.248667,0.315792,0.323901,0.355621,0.311829,0.282780,0.327687,0.244705,0.297091,0.300461,0.345070,0.282590,0.296545,0.265880,0.318244,0.264808,0.277706,0.236541,0.284739,0.216005,0.216818,0.286088,0.188792,0.210768,0.269635,0.271247,0.155560,0.184075,0.201822,0.180395,0.131374,0.166321,0.168486,0.155775,0.153853,0.129896,0.101332,0.146819,0.095500,0.089745,0.086674,0.100662,0.090961,0.061536,0.110446,0.070254,0.048954,0.055680,0.056496,0.042836,0.093996,0.053151,0.052159,0.050872,0.020094,0.049692,0.027877,0.031724,-0.010429,0.037704,0.046645,-0.024482,0.025632,0.020149,0.026497,-0.003552,0.036142,0.031326,0.034178,0.021875,-0.021321,0.016690,-0.005974,0.019597,0.012144,-0.012057,0.022052,0.050367,0.004930,0.047084,-0.037601,0.005485,-0.011627,-0.021889,0.037010,0.040224,0.027066,0.037444,0.004162,0.032690,0.039518,0.016444,0.009582,-0.018691,0.022326,0.035667,-0.018145,0.030734,-0.018059,0.046798,0.015834,0.037976,0.012396,-0.033574,0.014285,-0.013856,0.004407,0.033331,0.024058,-0.015942,0.017451,-0.019622,-0.001531,0.010311,-0.004320,0.057877,0.050287,-0.018662,-0.008362,0.007145,-0.011729,0.055835,-0.017779,-0.010309,-0.024590,0.038404,0.013611,0.004633,0.007769,0.009882,-0.002865,-0.000677,-0.011437,0.050059,-0.003329,-0.010126,-0.052977,0.001015,0.047404,-0.002145,0.000660,-0.023603,0.049295,0.029766,0.035289,0.045902,0.054964,0.029889,0.032669,0.055016,0.061464,0.068031,0.059507,0.099832,0.091246,0.096061,0.093845,0.125353,0.109485,0.133989,0.150602,0.110222,0.171337,0.133138,0.148568,0.140576,0.148520,0.149374,0.143875,0.146698,0.155161,0.157828,0.097264,0.100011,0.095199,0.124859,0.090337,0.090990,0.124660,0.076264,0.081659,0.076859,0.055596,0.071218,0.020646,0.047144,0.009061,0.015523,0.042865,0.010168,0.026445,0.024939,0.016342,0.030408,0.003746,0.018393,0.002579,-0.000679,-0.024569,-0.012984,-0.007569,0.048656,0.008682,0.010832,0.053945,-0.016889,0.035303,0.033880,0.020098,0.004954,0.024098,0.052200,-0.040498,0.006044,0.030808,0.001066,0.015217,0.020218,-0.015507,0.009330,-0.016806,0.051512,0.016845,-0.001771,0.043708,0.045294,0.044016,-0.001399,0.020179,0.025272,-0.046759,-0.038494,-0.074223,0.009193,0.000115,0.148838,0.207349,0.328589,0.522907,0.674159,0.840545,0.962481,1.035707,1.011972,0.904390,0.752830,0.672961,0.514327,0.358730,0.172913,0.059947,-0.021414,-0.105097,-0.154165,-0.151076,-0.133000,-0.048779,-0.006364,0.037422,0.015265,0.045977,0.005715,-0.011435,-0.003681,0.005765,0.053028,0.016301,0.057043,-0.010983,0.048857,0.035002,0.033387,0.030752,-0.002181,0.022470,0.025133,0.026004,-0.022830,0.044435,0.085222,0.038893,0.045359,0.035784,0.065784,0.024086,0.003035,0.083716,0.044099,0.075947,0.038741,0.014334,0.033438,0.086876,0.108784,0.077423,0.076017,0.115128,0.090851,0.060701,0.111285,0.115182,0.131058,0.094414,0.127706,0.180658,0.150084,0.163849,0.113769,0.158056,0.161214,0.154388,0.172716,0.193693,0.215122,0.198742,0.269216,0.197406,0.240244,0.257704,0.276637,0.291577,0.280700,0.283195,0.283805,0.312640,0.264435,0.303789,0.312204,0.328761,0.341090,0.336579,0.299915,0.308938,0.290621,0.318572,0.291683,0.347608,0.292841,0.287429,0.235331,0.298247,0.231641,0.281792,0.236435,0.267685,0.225625,0.242773,0.283742,0.201823,0.199737,0.274216,0.274897,0.173609,0.182385,0.167184,0.214392,0.121099,0.164449,0.166364,0.185400,0.109458,0.121327,0.118438,0.124029,0.088264,0.105073,0.080287,0.098307,0.088381,0.075682,0.051828,0.067378,0.066689,0.038530,0.033908,0.061457,0.091030,0.061639,0.042660,-0.000332,-0.002280,0.047268,0.053910,0.028286,0.002984,0.035296,0.036620,-0.000604,0.025798,0.017823,-0.002745,-0.007376,0.008234,-0.006095,0.025937,0.037609,0.001861,-0.015449,0.021159,0.003042,-0.000725,-0.018277,-0.015487,0.049551,0.011370,0.021892,0.009302,0.025620,-0.011616,-0.004322,0.001461,0.031108,0.041667,0.017207,0.019799,0.034013,0.009430,0.033677,-0.017427,0.025087,-0.026574,0.016687,0.013437,0.039011,0.004552,0.014952,0.012754,0.042136,0.020334,-0.026228,0.003402,-0.020911,-0.026999,0.025715,0.030079,-0.030184,-0.018838,-0.008400,-0.018775,-0.016037,0.030623,0.032037,-0.006041,-0.032442,-0.004393,-0.006177,0.013499,0.024308,-0.026086,-0.023006,-0.009284,-0.009846,-0.008485,0.016488,0.009432,0.047368,0.043295,-0.031470,0.008981,-0.035023,0.006629,-0.008769,-0.017498,-0.026697,0.023873,-0.018457,0.007446,-0.017180,0.056089,0.004299,0.013426,-0.006335,0.072096,0.014715,0.000927,-0.028845,0.022885,0.013770,0.029760,0.007389,-0.001311,-0.008831,0.017175,0.041255,0.029208,0.048855,0.010607,0.046091,0.075132,0.028940,0.069491,0.069543,0.073313,0.065177,0.056681,0.087574,0.096352,0.095673,0.112899,0.160876,0.129665,0.159875,0.112165,0.149350,0.131058,0.176080,0.170772,0.170985,0.159467,0.108994,0.128422,0.135278,0.102765,0.100194,0.086487,0.122160,0.110840,0.106332,0.065602,0.041594,0.086679,0.068973,0.069222,0.019594,0.044080,0.042564,0.033980,0.027043,0.016015,0.037995,0.035139,0.015657,0.041931,0.028986,0.014871,0.023124,-0.015239,0.015327,-0.018000,-0.007010,0.028944,0.016912,-0.008452,0.026810,-0.015847,0.036441,-0.012858,0.012345,0.013856,0.006253,0.042235,-0.015026,0.041361,0.034781,0.001410,-0.006993,0.040602,0.019412,0.007396,0.034274,0.038755,0.040859,0.019957,0.031873,0.029675,0.043437,0.040799,0.005358,0.020475,-0.038321,-0.061643,-0.065994,-0.038854,-0.001461,0.110173,0.243607,0.369677,0.521542,0.653681,0.838819,0.980258,1.030429,0.993036,0.877821,0.783542,0.669056,0.509053,0.329379,0.204562,0.086180,-0.024436,-0.116669,-0.165867,-0.145646,-0.130795,-0.083617,-0.011706,0.032860,0.005010,0.035559,0.034033,0.014812,0.008471,0.024574,0.053067,0.014356,0.048307,0.005776,0.055012,0.026594,0.035911,0.039224,-0.024135,0.059260,-0.021023,0.001331,0.025763,0.034489,0.045385,0.024783,0.052510,0.017508,0.084510,0.047573,0.020314,0.060827,0.043615,0.095773,0.070524,0.009696,0.029992,0.084872,0.122517,0.050384,0.095268,0.111049,0.049755,0.066556,0.100085,0.079072,0.113512,0.097321,0.099686,0.154591,0.115420,0.149638,0.103398,0.150744,0.186905,0.159020,0.177036,0.165868,0.215483,0.193990,0.210134,0.237681,0.217343,0.264811,0.259185,0.293344,0.259664,0.261499,0.277376,0.284644,0.306876,0.283508,0.305249,0.306137,0.371336,0.345503,0.293126,0.310764,0.311823,0.282199,0.329709,0.304603,0.295976,0.314112,0.264728,0.293260,0.259446,0.272531,0.255036,0.255093,0.223064,0.228205,0.274913,0.200141,0.186933,0.260984,0.275033,0.182868,0.200409,0.192009,0.214445,0.152053,0.151799,0.156473,0.182808,0.119181,0.112879,0.097974,0.109936,0.077635,0.118553,0.078844,0.077414,0.116693,0.086407,0.056830,0.092009,0.069821,0.041789,0.081987,0.049018,0.085141,0.062625,0.055597,0.029327,0.013322,0.043485,0.037433,0.036832,-0.026622,0.021294,0.041378,-0.037512,0.015783,0.018674,0.040467,0.005951,0.026104,0.006687,0.021490,0.055649,-0.040696,0.025565,0.003199,0.024381,0.020515,-0.010498,0.048140,0.034547,-0.037861,0.013779,0.015312,0.017715,-0.007623,-0.012452,0.047100,0.003122,0.060749,0.075259,0.023396,0.051515,0.009964,-0.002571,-0.006392,-0.007016,-0.027314,0.052463,-0.011314,0.027796,-0.001547,0.026467,0.035162,0.040552,0.027731,-0.027805,-0.001268,-0.038799,-0.035035,0.029539,0.017207,-0.028951,-0.016512,0.004703,-0.052785,-0.023935,0.014571,0.051963,0.005612,-0.056142,0.030488,-0.003246,0.025656,0.025347,-0.050559,-0.015290,0.028964,0.009235,-0.003208,0.008868,0.015365,0.022840,0.025408,0.001027,0.019383,0.021075,0.000324,-0.034360,0.009018,0.042170,0.003629,-0.012429,0.018270,0.012006,0.019954,0.034110,0.016872,0.039662,0.048156,0.044546,0.067240,0.049927,0.070550,0.067049,0.081051,0.104547,0.069894,0.093147,0.086436,0.105140,0.119124,0.164369,0.156126,0.156585,0.124644,0.163991,0.161342,0.203992,0.165110,0.175251,0.133074,0.133013,0.161763,0.143865,0.107658,0.116528,0.091994,0.107212,0.137410,0.104985,0.058722,0.062796,0.061000,0.064696,0.054088,0.034699,0.033020,0.040629,-0.002104,0.024051,0.022776,0.035800,0.039265,0.020275,0.045874,0.009148,0.005728,0.005671,0.008159,0.002654,0.004585,0.020508,0.070969,-0.021910,0.002933,0.037221,0.001956,0.019787,-0.000578,-0.000136,0.008961,0.016651,0.045981,-0.002920,0.040324,0.022053,0.043606,-0.000947,-0.002992,-0.001525,0.002242,0.024700,0.053197,0.012645,0.034760,0.035760,0.038208,0.032606,0.015634,0.011472,0.019536,-0.079244,-0.055920,-0.056540,-0.024165,0.002305,0.129506,0.230006,0.343905,0.509234,0.694285,0.823531,0.952084,1.043846,1.000677,0.901427,0.791397,0.699703,0.525434,0.379472,0.183423,0.071021,-0.012519,-0.101086,-0.143266,-0.163934,-0.120681,-0.071877,-0.017211,0.027699,0.004651,0.047392,0.020227,0.014457,0.043210,0.019447,0.077757,-0.002293,0.026794,0.036566,0.034628,0.022642,0.027677,0.029593,0.006085,0.036831,0.043132,-0.001518,-0.010522,0.053388,0.074762,0.031881,0.013374,0.035161,0.066754,0.065885,0.022652,0.068306,0.069001,0.047061,0.075044,0.017747,0.041026,0.101520,0.119383,0.078899,0.035545,0.099777,0.069257,0.073791,0.119273,0.110032,0.121216,0.112526,0.104696,0.153454,0.148708,0.144564,0.126503,0.177439,0.158793,0.112217,0.154184,0.220807,0.217095,0.160998,0.244031,0.224261,0.251958,0.273261,0.274854,0.296324,0.279734,0.299723,0.295483,0.271954,0.306300,0.297055,0.324618,0.306194,0.376862,0.362956,0.336314,0.297943,0.278764,0.297712,0.310808,0.319651,0.251277,0.283965,0.262939,0.283303,0.296883,0.272266,0.278182,0.270804,0.239808,0.229418,0.306953,0.213074,0.214778,0.260618,0.262528,0.185468,0.219448,0.186635,0.214857,0.166363,0.170276,0.164611,0.113845,0.133711,0.089575,0.113513,0.108700,0.113702,0.088181,0.056970,0.097989,0.098357,0.069649,0.077068,0.106863,0.072457,0.057684,0.070793,0.068821,0.082711,0.041708,0.044041,0.034354,-0.001445,0.052690,0.025107,0.060409,0.004622,0.053144,0.042225,0.000958,0.015666,0.008067,-0.011954,0.015604,0.021072,0.030780,0.043354,0.068146,-0.048728,0.005333,0.025310,0.057940,0.028877,-0.003608,0.013577,0.032751,-0.005340,0.012184,0.001829,0.008525,0.014737,-0.000928,-0.000992,0.029060,0.032879,0.033037,0.016599,0.038663,0.029212,0.001590,-0.005107,0.019638,-0.014820,0.002495,-0.005379,0.038948,0.002413,-0.000353,0.031283,0.016138,0.024403,-0.038177,-0.013533,-0.024324,-0.008119,0.023800,0.025190,-0.016350,-0.001292,0.008114,-0.030908,-0.023197,-0.016250,0.028799,0.008317,-0.078093,-0.000809,-0.011037,0.032427,0.006142,-0.061099,0.005261,0.042070,-0.001894,-0.025490,0.017168,-0.052287,-0.009625,-0.003529,0.021608,-0.017455,0.027552,0.016801,0.026417,-0.012066,0.013693,0.038400,-0.010487,0.028509,0.031230,-0.000541,-0.007166,-0.023013,0.004979,0.034738,0.022758,-0.006695,-0.001691,0.036282,0.017352,0.042034,0.023305,0.071272,0.028845,0.034696,0.071433,0.066102,0.061583,0.059388,0.085941,0.080546,0.055409,0.093828,0.113512,0.095056,0.091908,0.132722,0.104137,0.144744,0.115991,0.130131,0.149330,0.157313,0.164173,0.190227,0.154985,0.138528,0.151114,0.124672,0.107788,0.106404,0.079804,0.112742,0.066376,0.102248,0.080946,0.069009,0.102388,0.037428,0.062815,0.032251,0.032469,0.027942,0.012204,0.052904,0.040078,0.026752,0.046507,0.021891,0.047201,0.008876,0.029911,0.052990,-0.013190,-0.039735,-0.012711,0.020278,0.037075,0.007462,0.029138,0.053731,0.032985,0.049742,0.026743,0.023495,0.017515,0.011269,0.029744,0.015065,0.034522,0.039727,0.013645,-0.013261,0.025110,0.035051,0.036679,-0.001232,0.051795,0.046406,0.001389,0.000518,0.055712,0.056808,0.029571,0.005348,0.033176,-0.059530,-0.035992,-0.048618,-0.017268,0.016689,0.134975,0.248344,0.329563,0.475833,0.687289,0.837414,0.966130,1.043397,0.986706,0.919752,0.778858,0.677703,0.501381,0.383107,0.170394,0.078309,-0.037874,-0.101238,-0.140031,-0.172926,-0.116235,-0.066052,-0.049989,0.052203,0.042671,0.066230,0.023348,0.006459,0.030344,0.040523,0.087484,-0.000253,0.049118,0.019416,0.021336,0.045341,0.062359,0.040545,0.041724,0.044149,0.023593,0.016291,-0.001855,0.024792,0.086372,0.061774,0.022240,0.060850,0.066270,0.053497,0.045104,0.084489,0.060114,0.103932,0.064179,0.044846,0.023547,0.130200,0.110161,0.081330,0.047082,0.099208,0.085752,0.081019,0.083403,0.113766,0.103933,0.136910,0.131074,0.163357,0.160147,0.147458,0.102141,0.160865,0.169298,0.138211,0.148335,0.204870,0.216248,0.184877,0.197650,0.213876,0.235270,0.283062,0.256408,0.315740,0.259003,0.255316,0.303979,0.298831,0.291320,0.277606,0.326874,0.334586,0.347136,0.348404,0.299078,0.294400,0.285539,0.302384,0.335265,0.351112,0.287779,0.287276,0.267363,0.281923,0.276682,0.270747,0.244276,0.252530,0.249118,0.222883,0.311027,0.204531,0.211704,0.291013,0.250992,0.150926,0.205231,0.178289,0.208254,0.138707,0.157195,0.150177,0.146897,0.132708,0.107743,0.080963,0.100947,0.077275,0.095375,0.082039,0.088084,0.094791,0.076723,0.065962,0.075717,0.081478,0.034976,0.065412,0.043035,0.091045,0.096016,0.054499,-0.004423,0.019911,0.073828,0.032160,0.052813,-0.016971,0.021088,0.035018,-0.024831,0.009106,0.045147,-0.007804,-0.005839,0.000732,0.011691,0.014298,0.065583,-0.019443,0.018046,0.020289,0.025860,-0.006254,-0.007540,0.002713,0.058529,0.000618,0.031857,0.002762,0.016251,-0.052080,0.008927,0.033897,0.020734,0.053962,0.031276,0.000796,0.040647,0.018370,0.026307,0.005077,0.024968,-0.021899,0.029263,0.003942,-0.003918,0.005783,0.020279,0.015133,0.027465,0.017228,0.002754,-0.015102,-0.035239,-0.024898,0.059374,0.009425,-0.010044,-0.022037,-0.010270,-0.023972,0.026666,0.029343,0.011644,0.023350,-0.054983,-0.019419,0.017771,0.026193,0.047375,-0.046527,-0.013890,0.011246,0.005872,-0.005905,-0.002567,0.010989,0.000176,-0.010039,-0.007799,0.023266,0.011934,0.011439,-0.021336,0.001783,-0.008209,0.008151,-0.011543,0.003535,-0.016251,0.038635,0.025481,0.058053,0.012438,0.005124,-0.012308,0.017269,0.024178,0.047346,0.003590,-0.009700,0.034697,0.016763,0.053506,0.001099,0.039733,0.050477,0.047339,0.061316,0.053977,0.068763,0.056785,0.071082,0.115153,0.059939,0.080697,0.090828,0.120631,0.129678,0.169876,0.119166,0.173042,0.108656,0.144070,0.174419,0.182038,0.156052,0.157556,0.146687,0.164178,0.129296,0.135346,0.082231,0.088127,0.087952,0.105887,0.088843,0.099180,0.061485,0.051273,0.086838,0.061940,0.072201,0.009677,0.038457,0.039796,-0.004871,0.040322,0.017668,0.054418,0.063145,0.007452,0.073121,0.006578,0.028261,0.034388,-0.026294,0.000552,-0.006103,0.010115,0.032239,0.021673,0.015139,0.043946,0.031160,0.044656,0.014894,0.008144,-0.011743,0.007360,0.029454,0.001257,0.045919,0.025327,0.033253,0.016063,0.028596,0.001183,0.051981,0.023524,0.056916,0.014577,-0.008751,0.005495,0.036809,0.034821,0.076514,-0.005371,-0.001920,-0.043748,-0.030276,-0.055782,-0.012355,-0.013147,0.127437,0.216555,0.314117,0.501917,0.644430,0.808113,0.950868,1.024812,0.997460,0.912523,0.792948,0.696295,0.523171,0.352768,0.200971,0.078485,-0.010563,-0.105573,-0.138513,-0.153914,-0.115746,-0.061762,-0.028449,0.029676,0.002990,0.058560,0.019143,-0.007174,0.022550,0.006881,0.049383,0.029188,0.038041,0.006690,0.049098,0.055440,0.028564,0.012959,0.027781,0.034131,0.053010,0.010555,-0.023143,0.044609,0.096547,0.064828,0.064571,0.031034,0.081257,0.037570,0.041565,0.050480,0.049207,0.072636,0.073016,0.047494,0.040198,0.077564,0.098439,0.059443,0.084250,0.129222,0.083030,0.065387,0.071016,0.071687,0.133414,0.109721,0.121130,0.184926,0.161440,0.161287,0.112633,0.161831,0.160298,0.182174,0.179692,0.203404,0.242832,0.173215,0.236825,0.219642,0.197642,0.237184,0.252704,0.298847,0.270979,0.268327,0.310182,0.276623,0.299188,0.284499,0.295534,0.313018,0.335389,0.370189,0.287502,0.339664,0.285888,0.317725,0.317362,0.332540,0.283957,0.292273,0.262168,0.278937,0.265977,0.262914,0.293312,0.265537,0.250591,0.222295,0.290311,0.192415,0.200630,0.258281,0.290643,0.182723,0.206688,0.200302,0.232976,0.146610,0.189026,0.157154,0.138099,0.107810,0.157833,0.103756,0.101146,0.117442,0.112029,0.109749,0.070860,0.094881,0.070084,0.046193,0.081256,0.055883,0.053036,0.093530,0.041330,0.079245,0.074309,0.061678,0.013677,0.003637,0.071193,0.041164,0.007208,-0.025000,0.065890,0.038930,-0.009916,0.010146,0.026043,0.031879,-0.007021,0.003598,0.016736,0.018286,0.053174,-0.052201,0.015974,0.034479,0.027264,0.008763,-0.021837,0.006871,0.044919,0.001722,0.026909,-0.007942,0.002863,-0.006144,-0.001210,0.042877,0.029336,0.056699,0.053751,0.032837,0.028755,0.003804,0.023446,-0.004119,-0.007698,-0.012234,0.019509,-0.025485,0.017364,0.020765,0.032049,0.057771,0.043594,0.015420,-0.024803,0.007712,-0.011166,0.025782,0.020783,0.029246,-0.006543,-0.039561,0.015457,-0.001431,-0.023066,0.008328,-0.001442,-0.005246,-0.026790,0.000231,-0.014154,0.012234,0.023848,-0.046541,-0.000299,-0.017426,-0.013580,0.002311,0.014541,0.018572,0.011743,0.023341,-0.027771,0.035318,-0.034387,0.038220,-0.009165,0.028558,-0.002049,0.010797,-0.008040,0.006531,0.012376,0.012885,0.011739,0.023721,0.015072,0.027102,-0.014272,0.000001,0.009589,0.043965,0.042284,0.012134,0.006484,-0.012744,0.025416,0.019564,0.012208,0.016018,0.035000,0.044802,0.049759,0.063539,0.062164,0.068969,0.071629,0.066932,0.098505,0.071593,0.082439,0.099350,0.094771,0.111647,0.144597,0.142015,0.180426,0.126371,0.177548,0.157033,0.214401,0.167368,0.174217,0.139089,0.143871,0.170564,0.129462,0.129523,0.101229,0.097476,0.098559,0.103128,0.097061,0.060391,0.061562,0.115217,0.046695,0.037699,0.022315,0.033200,0.037856,0.018919,0.050334,0.009739,0.031892,0.021137,0.023123,0.021946,0.002480,0.029514,0.030160,0.003292,-0.006257,0.007162,-0.024620,0.041725,0.006385,0.023415,0.052164,-0.000087,0.013480,-0.006764,0.026587,0.014287,-0.004643,0.024049,-0.021385,0.025919,0.007223,-0.009542,-0.016791,0.026239,-0.004198,0.026613,0.040318,0.035497,0.016575,0.019967,0.021251,0.018711,0.064025,0.026028,0.027487,0.023376,-0.056542,-0.046020,-0.051944,-0.005625,0.006281,0.138217,0.231736,0.353105,0.484784,0.693327,0.834941,0.939172,1.055405,1.025026,0.922967,0.800946,0.686290,0.481136,0.325135,0.200245,0.061932,-0.026406,-0.100556,-0.124293,-0.163442,-0.128804,-0.037704,-0.034630,0.052656,0.013875,0.052065,0.034423,0.016887,0.024059,-0.001986,0.087185,0.001080,0.049991,0.016697,0.055757,0.043355,0.015607,0.010698,0.032708,0.044193,0.041932,0.009901,-0.010695,0.053741,0.061822,0.046319,0.027394,0.070995,0.054426,0.043338,0.039812,0.053191,0.063831,0.106959,0.052181,0.041411,-0.005195,0.097236,0.098418,0.058358,0.087426,0.106655,0.064522,0.071057,0.083357,0.081212,0.126506,0.084091,0.120896,0.154290,0.168617,0.172449,0.108677,0.183380,0.145783,0.173310,0.152972,0.208613,0.219201,0.175333,0.222245,0.228221,0.227963,0.277416,0.259231,0.300185,0.275905,0.264648,0.274298,0.297933,0.307854,0.310860,0.320669,0.327233,0.405716,0.356779,0.304996,0.319754,0.271240,0.295646,0.310569,0.342715,0.290104,0.292559,0.273710,0.303648,0.265427,0.262016,0.275846,0.278491,0.203319,0.220532,0.288904,0.223918,0.220988,0.259382,0.275631,0.180355,0.175824,0.186772,0.208850,0.146976,0.124889,0.158473,0.150439,0.121740,0.119165,0.098784,0.089974,0.074286,0.096491,0.091719,0.119391,0.110593,0.054998,0.072313,0.069201,0.062603,0.050031,0.044378,0.047603,0.091867,0.084914,0.034784,0.017000,-0.027456,0.046013,0.027618,0.022585,-0.004135,0.042532,-0.000987,0.004749,-0.001223,0.033130,0.001615,0.013803,0.011965,0.017188,0.021654,0.040769,-0.056802,-0.011541,0.009346,0.019838,-0.002448,-0.011020,0.015205,0.031523,-0.021345,0.032082,0.010278,0.038422,-0.019190,0.003291,0.041989,0.021142,0.035855,0.009159,0.010237,0.026663,-0.008542,0.012647,-0.013058,0.018134,0.003407,0.013069,-0.019311,-0.005772,-0.004327,0.035045,0.033068,0.030341,0.035549,-0.047600,-0.014850,-0.007050,0.019698,0.040864,0.015755,-0.042587,-0.046332,0.005838,-0.025816,-0.026795,0.009445,0.026165,0.027802,-0.040461,0.025653,0.002598,0.007062,0.047649,-0.032437,0.040109,-0.010380,0.013637,-0.009504,0.046450,0.012570,-0.025716,0.010133,0.020924,0.001401,-0.024375,0.004480,0.004175,0.012572,0.008084,0.041970,0.076239,-0.001380,-0.002567,-0.014245,0.036315,0.025658,0.001504,0.009930,-0.010818,0.027149,0.008207,0.041502,0.040128,0.043036,0.056414,0.028876,0.063444,0.039668,0.066193,0.077019,0.079352,0.071770,0.041841,0.071766,0.105945,0.135084,0.139981,0.133031,0.144345,0.178487,0.095130,0.143417,0.176305,0.177181,0.151144,0.179550,0.112994,0.134943,0.175099,0.131447,0.095388,0.110982,0.108040,0.131845,0.109965,0.115292,0.080508,0.077193,0.076483,0.047088,0.041368,0.018459,0.029743,0.033278,0.032210,0.039557,0.034464,0.042975,0.030806,0.041338,0.032059,0.040138,0.023089,0.001973,-0.008935,0.017875,-0.007208,0.008515,0.036967,-0.011821,0.021669,0.025557,0.005334,0.052086,0.009268,0.013546,0.010633,0.014974,0.038955,-0.000684,0.020369,0.028259,0.007105,-0.028248,0.011139,0.037034,0.034121,0.004586,0.031918,0.017989,0.028014,0.024724,0.046921,0.051851,0.037690,-0.009116,0.031004,-0.056424,-0.040269,-0.068963,-0.018282,0.019786,0.135289,0.238727,0.338547,0.490426,0.702155,0.843680,0.947513,1.045808,0.980374,0.890169,0.795048,0.659448,0.519962,0.349006,0.193246,0.076958,-0.003970,-0.112010,-0.122761,-0.139950,-0.140912,-0.062900,0.002218,0.064758,0.031906,0.026023,0.025323,0.018531,0.021307,0.027062,0.075929,0.012784,0.036972,-0.015645,0.053575,0.041092,0.036628,0.010882,0.029298,0.072224,0.025868,0.009647,0.015018,0.069734,0.052023,0.044237,0.025111,0.038125,0.066831,0.068610,0.065215,0.076296,0.053225,0.120171,0.053124,0.026916,0.009422,0.118761,0.117638,0.106902,0.050362,0.133421,0.068236,0.088807,0.087393,0.120213,0.123887,0.115157,0.142068,0.148804,0.133771,0.153969,0.089243,0.176739,0.174764,0.147654,0.178578,0.188531,0.230217,0.181347,0.212251,0.239842,0.234426,0.299438,0.268671,0.276988,0.287676,0.275024,0.291821,0.313519,0.289808,0.278024,0.304006,0.293232,0.355434,0.369086,0.301286,0.289002,0.263037,0.327276,0.316807,0.323290,0.288607,0.268326,0.278745,0.284805,0.288363,0.272840,0.280260,0.270733,0.240211,0.236016,0.295771,0.217454,0.203843,0.283855,0.253249,0.179458,0.186155,0.196728,0.202123,0.152217,0.150640,0.140706,0.149739,0.109452,0.096852,0.093517,0.113476,0.106607,0.110221,0.051268,0.073662,0.128464,0.061314,0.084961,0.055047,0.061134,0.032443,0.066557,0.048681,0.078838,0.056777,0.050886,0.003987,0.019514,0.094732,0.055737,0.048654,-0.007904,0.014290,0.013066,0.020758,0.000856,0.015356,0.018358,-0.002578,-0.002189,0.011884,0.006411,0.033481,-0.045476,0.018452,0.014623,0.017283,0.015630,-0.022529,0.015220,0.053055,-0.007151,0.026488,0.006614,-0.001480,-0.022067,0.015930,0.042271,0.028323,0.047577,0.033091,0.028346,0.056795,0.031025,0.023071,0.023453,0.012804,0.003877,0.030859,-0.011702,0.011065,0.013608,0.071739,0.015072,0.042102,0.013078,-0.032185,0.027031,-0.027789,-0.012480,0.009650,0.004996,-0.035285,-0.006518,0.045892,-0.025945,-0.035209,0.021962,0.013534,0.033126,-0.046741,-0.002250,-0.000191,0.020159,0.028273,-0.046930,-0.014371,-0.019078,0.005955,-0.026801,-0.006662,0.011391,0.004546,0.008855,-0.000976,0.017546,0.035589,0.015973,-0.002096,0.019181,-0.023972,-0.001865,0.006988,0.006551,0.005438,0.011993,-0.013803,0.001712,-0.004481,-0.014341,0.016696,-0.015441,-0.001084,0.066780,0.025296,-0.021761,-0.013584,0.020365,0.057310,0.000431,-0.011902,0.020488,0.022093,0.042759,0.008782,0.008446,0.007323,0.018656,0.054156,0.059150,0.049028,0.058378,0.062126,0.082341,0.107703,0.022190,0.080008,0.100959,0.102642,0.125595,0.165484,0.118455,0.156538,0.114627,0.165196,0.148892,0.167982,0.173531,0.193795,0.140551,0.152668,0.176509,0.130214,0.099711,0.092706,0.089581,0.125008,0.100315,0.102601,0.052636,0.058697,0.107292,0.047980,0.047932,0.054255,0.038200,0.038329,0.008527,0.035404,0.016868,0.006044,0.032959,0.036858,0.063469,0.021596,-0.021461,0.018421,0.029734,0.006149,-0.016653,0.010666,0.017649,-0.016579,0.008783,0.047837,-0.013364,0.018713,0.004072,0.011991,0.009858,-0.002344,0.049478,-0.028293,0.055920,0.001918,-0.004599,0.001797,0.049909,0.018237,0.036793,0.024703,0.039628,0.012319,-0.013583,0.008344,0.033343,0.029725,0.035415,-0.008608,0.021387,-0.058730,-0.032117,-0.051895,-0.002401,0.003172,0.138441,0.217943,0.336339,0.496230,0.667184,0.809713,0.937724,1.002185,0.975669,0.917352,0.755564,0.664488,0.532922,0.343250,0.201235,0.080447,-0.002750,-0.122450,-0.136993,-0.165924,-0.085376,-0.084275,-0.034219,0.024000,-0.001304,0.064167,0.054300,-0.001369,-0.009385,-0.018266,0.066819,0.009125,0.036328,0.016144,0.054408,0.043147,0.023522,0.014421,0.029610,0.041593,0.038017,0.022423,-0.010944,0.017735,0.056044,0.025345,0.048435,0.051600,0.084063,0.054347,0.041330,0.087570,0.065920,0.083801,0.081744,0.037211,0.031481,0.085252,0.113659,0.089191,0.070446,0.131168,0.037634,0.075884,0.111508,0.087287,0.147847,0.114747,0.126275,0.160676,0.112421,0.149522,0.131783,0.154379,0.144457,0.177817,0.193459,0.200269,0.218466,0.187168,0.213440,0.209139,0.219718,0.259836,0.252455,0.267423,0.272563,0.269081,0.306430,0.285634,0.304041,0.284623,0.302770,0.323758,0.371016,0.353951,0.293891,0.303830,0.265858,0.290215,0.308831,0.316141,0.299316,0.308435,0.243777,0.294953,0.252341,0.267492,0.248462,0.275911,0.217231,0.240404,0.282736,0.202491,0.188537,0.258921,0.280281,0.183493,0.219514,0.212138,0.203952,0.142725,0.160218,0.151865,0.167090,0.131384,0.126714,0.101768,0.132001,0.101271,0.100018,0.102888,0.108591,0.094047,0.077100,0.078729,0.070778,0.039590,0.018804,0.044823,0.032158,0.075905,0.082050,0.044335,0.025124,-0.005263,0.048410,0.044293,0.046803,-0.017488,0.045796,0.065883,0.001253,0.002304,0.023238,0.022225,0.011086,0.015742,-0.009011,0.005344,0.042356,-0.036237,0.002124,0.015450,0.020877,0.020017,-0.021887,0.025380,0.037875,-0.008592,0.034330,0.018392,0.020948,-0.000326,0.002916,0.039271,0.037446,0.033583,0.022972,0.020621,0.048997,0.004995,0.023461,0.001238,-0.023852,-0.008903,0.024267,-0.017812,0.043340,-0.015149,0.016691,-0.018489,0.033823,0.013836,-0.032514,0.020480,-0.004786,-0.004201,0.027904,0.031753,-0.009956,-0.028269,-0.021847,-0.027065,0.001112,0.042610,0.025362,0.002156,-0.060285,0.015506,-0.023991,0.017047,0.043950,-0.032935,-0.014683,0.008474,0.002564,-0.011672,0.027756,-0.005275,0.011636,-0.014561,0.028428,0.006023,0.008372,-0.008999,0.026671,-0.008960,0.006566,-0.023048,0.016906,0.016698,0.009433,-0.014009,0.002942,0.001386,0.023335,-0.001905,0.051855,0.009125,-0.004850,0.006508,0.015161,0.027384,-0.006834,0.010509,-0.014241,0.032961,0.030856,0.015147,0.001878,0.052960,0.037512,0.026430,0.064479,0.051623,0.121420,0.069713,0.072115,0.114260,0.033951,0.093899,0.128489,0.102382,0.093545,0.155532,0.144846,0.170082,0.105727,0.137686,0.151476,0.174342,0.190854,0.186176,0.151896,0.118311,0.138110,0.139169,0.082690,0.094258,0.097981,0.095130,0.081486,0.097660,0.077069,0.089132,0.084246,0.051752,0.048361,0.016725,0.026310,0.035805,0.015647,0.008686,0.007627,0.044853,0.035466,0.011162,0.071049,0.019872,0.019316,0.025823,-0.016872,-0.017760,0.027335,0.016848,0.041108,0.012372,-0.001041,0.065627,0.002072,0.040200,-0.020674,-0.012500,0.008710,0.003739,0.008928,-0.002427,0.063080,0.048497,0.007929,-0.004331,0.038261,0.030343,0.023197,0.024952,0.059533,0.027979,0.002600,0.025724,0.048014,0.064715,0.037782,0.036706,0.011145,-0.027055,-0.045078,-0.007685,-0.038825,0.004166,0.143881,0.238618,0.371795,0.490136,0.691646,0.845383,0.969496,1.022866,1.012631,0.926380,0.788535,0.688075,0.509451,0.351616,0.206031,0.071279,-0.025416,-0.115344,-0.144807,-0.138318,-0.122475,-0.057121,-0.010989,0.030199,0.043131,0.039862,0.011462,0.013003,-0.017126,0.003430,0.085197,-0.012191,0.062861,0.035491,0.042938,0.042678,0.045050,0.023944,0.032640,0.031338,0.017527,-0.001418,0.015522,0.056618,0.064616,0.022120,0.020866,0.052249,0.095237,0.054306,0.032397,0.081067,0.055281,0.077106,0.045161,0.056610,-0.002042,0.109788,0.096158,0.064480,0.096589,0.100837,0.056983,0.074759,0.118317,0.091564,0.088482,0.102755,0.151611,0.161408,0.149229,0.156999,0.107142,0.188976,0.154067,0.151523,0.189797,0.181679,0.216372,0.190914,0.225506,0.227955,0.266759,0.274150,0.232305,0.295774,0.269840,0.266214,0.284607,0.295229,0.298811,0.289128,0.298447,0.298378,0.404745,0.338302,0.299228,0.286758,0.288122,0.288306,0.311524,0.348677,0.299797,0.299012,0.230830,0.318255,0.249974,0.294994,0.274140,0.275543,0.214588,0.227503,0.279358,0.212671,0.203588,0.224544,0.283679,0.178176,0.178660,0.182286,0.213942,0.134090,0.119345,0.170542,0.157382,0.122966,0.105649,0.092798,0.084190,0.083298,0.090453,0.092916,0.088638,0.092143,0.106342,0.081085,0.070436,0.054393,0.032996,0.025337,0.061160,0.092287,0.069842,0.044811,0.033220,-0.010219,0.046487,0.018439,0.064452,0.006515,0.010331,0.010194,-0.000469,0.005616,0.005979,0.050014,0.018041,0.023334,0.002261,0.030618,0.038889,-0.038008,0.019782,-0.006330,0.043917,0.009412,-0.001184,0.003262,0.032151,-0.034602,0.032448,0.006395,0.003280,-0.024368,-0.014606,0.034870,0.014509,0.033080,0.055604,0.016665,0.061819,0.009358,0.028254,0.001816,-0.016087,0.015816,0.024600,-0.004211,0.010821,0.000615,0.016057,0.039233,0.045708,0.025277,-0.004492,0.021210,-0.006215,-0.026695,0.023028,0.001302,0.001254,-0.013435,-0.016961,-0.023276,-0.032620,0.007665,-0.000393,0.021568,-0.036841,0.057565,0.024477,-0.013561,0.051880,-0.077824,-0.007532,0.005679,-0.034014,-0.011476,0.010734,0.001313,-0.021352,0.002950,0.014236,0.032075,0.012447,0.001565,0.042801,-0.022241,0.002566,0.000205,0.056763,0.021264,0.003808,-0.013385,0.000439,0.033440,0.031126,0.047234,0.001760,0.047010,0.042565,0.041387,0.055175,0.090215,0.057354,0.069905,0.066571,0.119744,0.074869,0.082309,0.106262,0.107991,0.111795,0.172844,0.128868,0.167677,0.117681,0.154430,0.163313,0.169811,0.161165,0.195796,0.129300,0.144700,0.153226,0.157564,0.089320,0.086613,0.078871,0.117046,0.076254,0.091894,0.037229,0.076816,0.067637,0.028326,0.075838,0.013173,0.045927,0.019141,0.034621,0.051428,0.004291,0.013029,0.043360,0.028482,0.033172,0.039389,0.002321,0.021200,0.002961,0.005290,-0.006884,-0.002534,0.002697,-0.012116,0.018784,0.044396,0.015843,0.051539,-0.013893,0.014570,0.006766,0.005313,0.060238,0.003093,0.035631,0.054567,-0.010694,-0.004579,0.030441,-0.000207,0.032861,0.007841,0.065382,0.035539,0.008681,-0.000267,0.012814,0.055043,0.030939,-0.029490,0.035584,-0.049350,-0.065502,-0.041826,-0.031101,0.004180,0.142975,0.259375,0.366897,0.505558,0.685008,0.839818,0.940072,1.046943,0.980503,0.912717,0.776129,0.692528,0.507831,0.306702,0.199102,0.080444,-0.005999,-0.101154,-0.108894,-0.136980,-0.115506,-0.044684,-0.013062,0.026139,-0.015429,0.036721,0.029378,0.000471,0.022440,0.017518,0.089802,0.009442,0.053112,0.020412,0.071004,0.012701,0.021388,0.043673,0.042811,0.045007,0.020301,0.021929,0.023413,0.033854,0.072332,0.058897,0.065463,0.057469,0.068237,0.047589,0.046561,0.067839,0.061718,0.066912,0.078994,0.018381,0.029564,0.099284,0.132979,0.064295,0.061214,0.103287,0.092068,0.034530,0.097068,0.139161,0.120953,0.099150,0.131762,0.161298,0.155155,0.188513,0.122862,0.155716,0.168697,0.147700,0.157855,0.166115,0.201816,0.177314,0.207835,0.228759,0.217393,0.221951,0.252317,0.283801,0.260190,0.288355,0.271715,0.308873,0.299315,0.279298,0.294047,0.311712,0.347912,0.351590,0.294182,0.295024,0.301253,0.308707,0.311440,0.335183,0.291460,0.277472,0.258456,0.281386,0.253678,0.247724,0.253438,0.275388,0.216992,0.263040,0.299707,0.231800,0.219265,0.282916,0.255048,0.140982,0.179240,0.199065,0.210837,0.151628,0.172986,0.170166,0.161580,0.111867,0.106437,0.115676,0.107672,0.089358,0.092392,0.070520,0.083443,0.079614,0.054515,0.072873,0.056457,0.076546,0.046338,0.062113,0.035482,0.083747,0.077944,0.057612,0.020769,0.029288,0.055455,0.047377,0.030531,-0.033808,0.047396,0.043781,0.010147,0.019035,0.020616,0.008742,0.021629,0.022609,0.004228,0.036425,0.031353,-0.042511,0.035163,0.031133,0.014592,0.010987,-0.018077,-0.021791,0.032402,-0.017937,0.023345,0.009112,0.027189,-0.013980,-0.011472,0.040470,0.016594,0.041023,0.028021,0.051527,0.009158,0.011532,0.024527,-0.009069,0.022874,0.006590,0.025911,-0.019467,0.020422,0.001516,0.027884,0.017873,0.044824,0.031069,-0.043319,-0.011895,-0.043923,0.007627,0.037218,0.023939,-0.031102,0.010779,-0.005236,-0.017922,0.002608,-0.006342,0.016243,0.016324,0.000352,0.011744,0.026574,0.026877,0.037204,-0.054317,0.004508,-0.022472,0.024013,0.003000,-0.039753,0.016611,0.019090,-0.019564,0.018650,-0.030131,-0.001297,-0.000390,-0.001167,-0.016144,0.044447,-0.012959,-0.000489,-0.002394,-0.009405,-0.008716,0.012524,0.042813,0.055194,-0.027962,-0.050184,0.002353,0.018282,0.047710,-0.005386,0.000505,0.009950,0.021003,0.025535,0.031318,0.019155,0.032002,0.049097,0.034639,0.039973,0.083470,0.060540,0.056909,0.076837,0.093967,0.055767,0.092222,0.097976,0.106748,0.084182,0.189684,0.120819,0.173150,0.097638,0.140900,0.149787,0.190970,0.161993,0.181761,0.135300,0.131497,0.154346,0.150428,0.074524,0.077907,0.064209,0.095882,0.084676,0.074855,0.058502,0.042989,0.059871,0.068653,0.065607,0.035600,0.018931,0.006615,-0.006490,0.039536,0.032435,0.040321,0.043737,0.021354,0.036080,0.015486,0.010533,0.050387,-0.037788,-0.010367,0.013686,-0.020189,0.019123,-0.004208,0.010659,0.022525,0.023648,0.045945,0.011543,0.005058,0.005233,0.002384,0.033777,0.021766,0.032714,0.009841,0.014494,-0.024740,0.006960,-0.002106,0.021685,0.038494,0.063700,0.027516,-0.011888,0.019405,0.031396,0.037147,0.026446,0.017540,0.011710,-0.048009,-0.029325,-0.059329,-0.003248,0.022897,0.115591,0.216127,0.330039,0.487339,0.676718,0.837166,0.977754,1.041903,0.984829,0.876706,0.780600,0.685396,0.508803,0.384391,0.215028,0.082588,-0.027119,-0.107310,-0.134949,-0.153281,-0.114564,-0.054998,-0.034826,0.057561,0.022681,0.017942,0.017193,0.009986,0.025014,0.010225,0.082900,0.016677,0.026372,-0.008404,0.065319,0.056241,0.033108,0.053381,0.035472,0.051660,0.011022,0.036544,0.018427,0.033461,0.057354,0.045041,0.012040,0.056825,0.053271,0.053959,0.030376,0.065608,0.047520,0.080361,0.087878,0.056259,0.041363,0.097440,0.115777,0.087585,0.058757,0.110387,0.039855,0.093562,0.143085,0.099393,0.080214,0.124874,0.118830,0.150336,0.151862,0.164739,0.109712,0.154069,0.158778,0.152032,0.156717,0.187526,0.230387,0.188089,0.204300,0.238897,0.194302,0.262411,0.258673,0.293102,0.277697,0.282463,0.270232,0.304458,0.302537,0.254259,0.335086,0.291012,0.365680,0.354889,0.301861,0.301775,0.298783,0.278899,0.317174,0.324543,0.282558,0.296917,0.273560,0.285552,0.279563,0.272812,0.245426,0.263014,0.222920,0.214780,0.292849,0.215755,0.183476,0.230350,0.273223,0.167164,0.190462,0.202405,0.189500,0.126323,0.178289,0.169709,0.143307,0.111951,0.115211,0.073605,0.119409,0.087055,0.118116,0.074248,0.078427,0.092467,0.037659,0.073987,0.062799,0.072310,0.013647,0.075562,0.058938,0.104343,0.071738,0.062078,0.000109,0.023797,0.043768,0.010713,0.021017,-0.006536,0.031006,0.038542,-0.025607,-0.019204,0.046431,0.034400,-0.002386,0.016167,0.027934,0.026072,0.046819,-0.017331,-0.000344,0.018572,0.019694,0.002584,-0.026246,0.020487,0.046515,-0.032900,0.040721,-0.009241,0.006973,-0.013586,0.009764,0.003810,0.034857,0.033209,0.050697,0.010727,0.042036,0.046063,0.020423,0.021231,0.009963,0.000622,0.027677,-0.002689,0.011818,-0.011673,0.019481,0.022189,0.037724,0.030425,-0.005294,-0.010773,-0.028704,-0.026913,0.063918,0.020930,-0.002462,-0.036098,0.003879,-0.012806,-0.013999,0.024598,0.059116,-0.000570,-0.057841,-0.005939,0.026571,0.024427,0.029651,-0.038930,-0.023637,0.013350,-0.005699,-0.003901,0.009132,-0.002820,-0.003524,0.000159,0.011930,0.024697,0.008782,0.012050,-0.002998,-0.010617,0.009810,0.002569,-0.021339,-0.004921,-0.001243,-0.007657,0.022226,0.007198,0.020598,0.003951,0.001221,-0.014049,0.000179,0.000196,-0.020507,-0.008093,-0.004849,0.006202,0.006920,-0.008720,0.007033,-0.002731,-0.043044,-0.007271,0.016185,-0.025227,0.001690,0.023779,-0.011409,0.000032,-0.019560,0.024408,-0.001250,0.000699,0.020315,0.009922,-0.013134,-0.009709,0.007424,-0.009362,-0.031759,-0.000799,-0.022203,0.024244,0.002652,-0.013578,-0.010479,-0.028341,-0.016492,0.015245,0.033477,0.010896,-0.001381,-0.006479,-0.014347,0.030896,-0.002831,0.031734,0.020903,-0.026112,-0.009989,-0.010036,-0.001198,-0.000905,0.044944,-0.016158,0.003435,0.009248,-0.000024,0.001653,-0.015672,0.001597,0.007671,0.004914,0.008553,0.021189,0.014054,0.001069,-0.017576,-0.009000,-0.003294,0.003785,-0.007175,-0.014036,-0.017823,-0.024768,-0.003524,-0.022045,-0.015008,-0.005909,-0.020039,0.005696,0.011103,-0.008241,-0.006555,0.008061,-0.010710,-0.011741,0.017947,0.013263,0.009023,0.013885,-0.029659,0.020308,0.005881,0.015162,0.005807,0.000734,-0.004130,0.005507,-0.004676,0.013018,-0.023797,-0.008124,0.030672,-0.009391,-0.003580,-0.013239,0.005038,-0.011044,-0.002784,0.012733,-0.010481,0.011829,0.012333,0.015824,0.002108,0.048619,0.015818,0.004873,-0.013139,-0.001456,0.021395,0.025643,0.022175,0.011778,-0.018835,0.007307,-0.018621,-0.022312,0.003587,0.007848,0.013551,0.007457,0.007974,-0.014770,-0.001575,-0.022607,-0.030051,0.011110,-0.011297,0.013087,0.016625,-0.009290,0.008855,-0.009917,-0.027688,0.001850,-0.007063,-0.006601,0.029630,-0.022888,0.005743,-0.014922,0.013624,0.004476,0.005690,-0.014173,-0.011484,0.013909,0.026562,0.007205,-0.013461,0.005084,0.036412,0.001536,0.021928,-0.011105,-0.000631,0.009293,0.005960,-0.011496,-0.012143,0.014824,0.017873,0.022682,0.027059,0.002019,-0.004668,0.020265,0.010696,-0.014737,-0.015505,0.007379,-0.002659,-0.000396,0.016088,0.011386,0.019948,-0.028973,0.003801,0.010420,-0.022899,-0.009823,-0.012607,0.000325,0.024418,0.030339,-0.012214,0.007898,0.008382,0.005814,0.005985,0.004556,0.025314,0.016537,-0.015902,0.011936,0.013386,0.004725,0.016971,0.002821,0.003007,0.001819,-0.030274,-0.001206,-0.010024,-0.017797,0.021510,0.007563,-0.000447,-0.008472,0.004443,0.014872,-0.012404,-0.000072
II,0.013021,-0.029040,-0.000864,-0.006439,-0.002007,-0.007524,0.002064,0.028854,-0.004859,0.004376,0.029921,-0.008250,0.027220,0.000080,0.026728,0.011253,0.004607,-0.000984,-0.009361,0.001137,0.013460,-0.000197,-0.004749,-0.003762,0.014887,0.018377,-0.010007,-0.010029,0.005690,0.022913,0.017190,-0.018778,-0.003961,-0.013959,-0.004013,0.024066,-0.021339,-0.024283,-0.012428,0.004310,0.009311,0.006562,0.017635,-0.026446,0.017825,-0.004681,0.010972,-0.019851,0.000074,0.003544,0.017336,-0.023779,0.000461,-0.016279,0.007582,0.011658,0.019308,-0.008025,0.013908,0.020414,-0.024649,0.009185,0.014378,-0.003881,-0.018162,0.014144,-0.017993,-0.002675,-0.000602,0.010733,0.022506,0.003365,-0.022034,0.026737,0.008779,0.004261,0.005732,-0.018708,-0.000758,0.024172,-0.010423,-0.016458,-0.006157,0.025335,0.023517,0.018050,-0.000711,0.079234,-0.003846,0.012246,-0.023313,0.004943,0.044429,0.030934,-0.004562,-0.007025,0.027659,0.073267,0.030006,0.005300,0.055879,0.022822,0.080183,0.097356,0.092544,0.110630,0.093710,0.098379,0.134459,0.075815,0.143154,0.156908,0.175116,0.181191,0.251075,0.176276,0.234395,0.180906,0.211568,0.238895,0.232237,0.237658,0.259839,0.226392,0.188361,0.242210,0.184703,0.151370,0.164693,0.149347,0.176755,0.170908,0.134982,0.087330,0.096715,0.106566,0.039084,0.084375,0.039999,0.061664,0.048853,0.006558,0.067882,0.039366,0.027820,0.042959,0.014242,0.036102,0.018693,0.021020,0.014951,-0.024388,-0.028438,-0.004029,0.009029,0.048313,0.005662,-0.002537,0.058958,0.015513,0.046763,0.006879,0.047992,0.017963,0.008509,0.067124,-0.005874,0.033859,0.053358,0.014913,-0.027706,0.043474,0.023103,0.038232,0.035341,0.070045,0.038050,0.006100,0.042932,0.045486,0.051097,0.031569,-0.017108,0.033358,-0.093691,-0.076187,-0.077804,-0.021724,0.003250,0.201160,0.366838,0.528921,0.749564,1.001173,1.201203,1.419473,1.521429,1.464975,1.324300,1.142578,1.008763,0.747111,0.525676,0.279858,0.083876,0.005733,-0.108999,-0.189444,-0.227949,-0.190924,-0.081022,-0.007062,0.039994,0.029199,0.067397,0.039358,0.003319,-0.008147,0.031776,0.120410,0.019137,0.073797,0.011721,0.058532,0.071662,0.047333,0.052816,0.051358,0.045003,0.027992,0.017900,0.006788,0.069405,0.096169,0.045620,0.055497,0.070616,0.113290,0.076998,0.063035,0.107011,0.083664,0.110863,0.091795,0.047129,0.078300,0.163833,0.160970,0.109442,0.103282,0.144952,0.095453,0.114218,0.168134,0.151290,0.178483,0.159644,0.184241,0.257228,0.220847,0.230535,0.170319,0.239106,0.230951,0.239453,0.292689,0.285656,0.340901,0.254936,0.323997,0.347584,0.351821,0.329489,0.403776,0.456083,0.365630,0.412910,0.371099,0.448403,0.439992,0.375980,0.457065,0.476472,0.533411,0.521524,0.431194,0.426294,0.431072,0.470341,0.484333,0.459371,0.407287,0.414043,0.354232,0.427712,0.399385,0.378220,0.391867,0.401076,0.325854,0.328282,0.391516,0.306797,0.304694,0.377315,0.397698,0.267198,0.269175,0.284425,0.321419,0.215244,0.229779,0.238768,0.210060,0.192883,0.172168,0.140156,0.156373,0.140444,0.144498,0.110279,0.113516,0.150974,0.116621,0.124095,0.088031,0.116483,0.055917,0.072273,0.053594,0.099685,0.129537,0.089419,0.041591,0.005805,0.108458,0.046851,0.051610,0.011835,0.073597,0.081349,0.005959,0.012705,0.028790,0.002914,0.015437,0.040985,0.027553,0.029368,0.050589,-0.046189,0.030789,0.033057,0.031826,-0.002147,-0.016958,-0.018489,0.073316,0.013326,0.019527,0.004320,0.014934,-0.020390,0.021999,0.059380,0.033859,0.075663,0.047845,0.073993,0.065098,0.028427,0.010456,-0.004261,0.030986,-0.028271,0.006753,-0.022149,0.053028,0.005172,0.037648,0.002522,0.067068,0.038963,-0.063253,0.022695,-0.014509,0.009097,0.057911,0.033838,-0.006379,-0.010470,-0.021557,-0.052550,-0.026036,0.010484,0.041722,0.056807,-0.032058,0.004326,0.002196,-0.009038,0.060701,-0.059817,-0.014313,-0.067171,0.074419,0.008193,-0.016555,0.023896,0.015275,0.018249,0.010830,0.044017,0.066742,-0.000810,0.012876,-0.003920,0.028162,0.061596,0.049572,-0.002215,-0.002278,0.043273,0.066557,0.036462,0.012006,0.024266,0.032905,0.053297,0.087154,0.105592,0.110298,0.082446,0.103407,0.157182,0.107343,0.136284,0.138169,0.169837,0.160714,0.243087,0.214823,0.244650,0.162167,0.223520,0.227807,0.227243,0.261398,0.267075,0.208428,0.197488,0.217727,0.190445,0.142687,0.128273,0.165617,0.171815,0.150862,0.158791,0.113684,0.101351,0.114472,0.070367,0.094063,0.053293,0.044168,0.023627,0.017762,0.055968,0.000161,0.046964,0.064835,0.085547,0.046594,0.021749,0.003266,0.032261,-0.013651,-0.022228,-0.009220,-0.027036,0.056173,-0.006084,0.020059,0.046857,0.012887,0.048618,0.005585,0.033805,0.027368,0.034313,0.071381,0.006214,0.054496,0.040074,0.032455,0.009538,0.046374,-0.001971,0.029025,0.031780,0.092526,0.028577,0.023805,0.060164,0.058116,0.086499,0.029429,0.023281,0.015774,-0.100244,-0.082488,-0.063498,-0.023848,0.051577,0.204796,0.378501,0.505870,0.735091,0.976919,1.232938,1.401162,1.514094,1.475785,1.351166,1.162152,1.000868,0.742652,0.517373,0.300283,0.127329,-0.013117,-0.116714,-0.182697,-0.211611,-0.166895,-0.063069,0.002796,0.075991,0.031449,0.061208,0.035030,0.033582,0.021817,0.029276,0.104309,0.015457,0.065287,0.020870,0.096991,0.052669,0.042310,0.032479,0.039576,0.081326,0.060640,0.018581,0.023868,0.055354,0.106900,0.065217,0.055384,0.070127,0.106049,0.066689,0.052480,0.127817,0.127146,0.103541,0.068571,0.037769,0.051403,0.157137,0.160347,0.106346,0.112536,0.153488,0.095034,0.112396,0.140929,0.126827,0.147840,0.181488,0.198167,0.244631,0.181688,0.214144,0.181875,0.198966,0.248846,0.205013,0.267314,0.269481,0.346696,0.328356,0.297172,0.339583,0.318664,0.401728,0.390564,0.429257,0.381894,0.401827,0.390953,0.452958,0.433983,0.390190,0.474297,0.458200,0.556567,0.531072,0.425397,0.452940,0.422509,0.466989,0.473952,0.491834,0.427013,0.425975,0.397695,0.427105,0.387559,0.391206,0.371904,0.371028,0.322821,0.353346,0.417664,0.322347,0.267402,0.383309,0.389595,0.256313,0.275854,0.272694,0.274530,0.230510,0.228661,0.236851,0.205268,0.162992,0.183855,0.158565,0.158997,0.124262,0.152797,0.117100,0.151164,0.154332,0.068360,0.119529,0.080951,0.066726,0.058786,0.091565,0.043889,0.136263,0.117998,0.069557,0.019565,0.004556,0.096678,0.029459,0.071612,-0.012202,0.062276,0.022711,0.000027,0.027864,0.017921,0.038098,0.020951,0.014160,0.031390,-0.003971,0.070713,-0.025300,0.037196,0.032444,0.024799,0.000270,-0.034510,0.036647,0.055465,-0.013868,0.074150,0.007012,-0.005114,-0.033623,0.018102,0.051397,0.044726,0.055699,0.060053,0.023921,0.051840,0.019483,0.018157,0.033731,0.012330,0.001428,0.031063,-0.038413,0.028959,0.021054,0.034879,0.017341,0.062616,0.036529,-0.011884,0.010983,-0.016335,0.002902,0.031863,0.009583,-0.030448,-0.043479,0.017656,-0.025683,-0.013803,-0.026459,0.066732,0.006618,-0.031672,-0.011122,-0.008545,-0.020127,0.051977,-0.074515,-0.032825,-0.020588,0.011660,0.010672,0.027181,-0.010286,0.003282,0.012565,0.008608,-0.031300,0.018608,-0.010277,0.041739,-0.011640,0.012567,-0.016701,0.033381,-0.010931,-0.016018,0.021120,0.025098,0.018881,0.014203,0.055927,0.087892,-0.013868,-0.009284,-0.015911,0.031165,0.034421,0.018077,0.014806,-0.023734,0.023792,0.039653,0.038898,0.046158,0.062354,0.064827,0.057099,0.083699,0.057280,0.113985,0.103493,0.133617,0.133398,0.088317,0.138413,0.158185,0.130910,0.186655,0.236899,0.164853,0.210300,0.171754,0.239080,0.259977,0.253486,0.280312,0.249663,0.227392,0.196378,0.224431,0.182531,0.120214,0.162745,0.127610,0.152796,0.124576,0.142474,0.128571,0.138954,0.085471,0.069085,0.071971,0.062992,0.054206,0.034018,0.016657,0.051871,0.052730,0.047553,0.060402,0.007618,0.051460,0.061078,0.039799,0.001425,-0.021387,-0.028081,0.019071,0.006308,0.030760,0.005989,-0.018532,0.051983,0.022169,0.065497,-0.023365,0.020891,0.020927,0.001550,0.060386,-0.014488,0.071666,0.037172,0.014744,0.006267,0.016750,0.016535,0.034811,0.033819,0.093558,0.037210,-0.004479,0.042486,0.062485,0.055946,0.047161,0.013144,0.023942,-0.099968,-0.057014,-0.094984,-0.015368,0.011990,0.192755,0.359981,0.518115,0.737884,1.007528,1.211951,1.408568,1.513875,1.470128,1.323392,1.167449,1.001564,0.743725,0.529652,0.288904,0.099557,-0.019089,-0.132930,-0.206098,-0.209982,-0.179172,-0.075690,-0.028676,0.085312,0.028716,0.060893,0.023824,-0.011277,-0.000241,0.014498,0.120576,0.019879,0.060449,0.037236,0.094487,0.075096,0.028724,0.038031,0.056033,0.064443,0.032258,0.026306,0.030362,0.049086,0.102271,0.074406,0.037106,0.068246,0.082554,0.056347,0.047671,0.109363,0.081657,0.111880,0.088236,0.034922,0.059385,0.160671,0.150290,0.100725,0.110203,0.133442,0.106748,0.159226,0.162852,0.142460,0.175817,0.194706,0.209111,0.203131,0.217734,0.274976,0.181264,0.223327,0.234704,0.213152,0.273156,0.268471,0.332076,0.267366,0.323073,0.351444,0.347338,0.386938,0.376487,0.399235,0.376800,0.391799,0.427382,0.425928,0.463680,0.400468,0.446803,0.443016,0.542814,0.544214,0.410942,0.449023,0.439665,0.422391,0.475890,0.507511,0.431184,0.434987,0.404540,0.456276,0.392554,0.391688,0.366410,0.406714,0.313500,0.327081,0.422303,0.304235,0.308781,0.413252,0.390191,0.257003,0.288370,0.283725,0.327978,0.219147,0.221289,0.214805,0.195465,0.157504,0.186186,0.113930,0.174783,0.145457,0.145757,0.105243,0.147537,0.133163,0.098367,0.129176,0.101322,0.084528,0.071235,0.085534,0.074245,0.113441,0.137604,0.060158,0.055920,0.016414,0.093395,0.063140,0.072848,-0.022334,0.079848,0.076029,-0.001653,0.019181,0.030115,0.025422,0.045287,0.008753,0.004439,0.053227,0.074881,-0.017786,0.008840,0.028491,0.019414,0.011957,-0.056577,0.038764,0.072426,-0.026092,0.036297,-0.005481,0.025968,-0.031018,0.014131,0.083410,0.053857,0.041127,0.039542,0.032617,0.061774,0.004506,0.041892,0.003740,0.042490,-0.012038,0.056636,-0.041640,0.017047,0.015361,0.058946,0.016038,0.060646,0.008320,-0.039245,0.018231,-0.032519,-0.011623,0.032211,0.014308,0.012182,-0.022403,-0.009310,-0.034756,-0.038957,-0.002781,0.056305,0.049800,-0.020454,-0.014331,0.014743,-0.003003,0.033329,-0.053919,-0.019875,0.006251,0.052720,-0.017308,0.011013,-0.008949,0.006920,0.019218,0.015095,0.042314,0.073426,0.000033,0.008329,0.003696,0.040731,0.066232,0.020625,-0.004461,0.014558,0.039351,0.047399,0.071274,0.040510,0.047205,0.043859,0.083012,0.100000,0.083790,0.097430,0.101103,0.114001,0.126595,0.092379,0.139843,0.139176,0.166521,0.194947,0.251755,0.176589,0.252907,0.174970,0.198829,0.244948,0.250347,0.289786,0.272166,0.223759,0.206884,0.234606,0.177639,0.125037,0.130350,0.136519,0.133234,0.134111,0.141826,0.098887,0.097621,0.105261,0.100261,0.097418,0.039763,0.048882,0.043142,0.004049,0.047495,0.043675,0.033052,0.033934,0.046975,0.054232,0.000239,0.019296,0.042151,-0.009917,0.023389,0.012171,0.024378,0.084278,0.016849,0.023025,0.082863,0.013234,0.054428,-0.003962,0.032579,-0.003997,0.013018,0.063150,-0.017544,0.017037,0.018791,0.000109,-0.019802,0.042862,0.023132,0.057626,0.047195,0.096910,0.038024,0.009897,0.056925,0.053920,0.074057,0.064050,-0.019145,0.020530,-0.080095,-0.060885,-0.059798,-0.052512,0.042478,0.184566,0.324666,0.499692,0.729981,0.972734,1.226028,1.418885,1.539610,1.450065,1.333199,1.144715,1.031621,0.700903,0.503916,0.288629,0.087742,-0.022514,-0.148229,-0.206020,-0.207122,-0.169904,-0.092202,-0.033977,0.055701,0.030952,0.038353,0.033312,0.001708,0.034233,0.031324,0.121089,0.005211,0.062148,0.000201,0.060641,0.075047,0.063833,0.028238,0.021952,0.059683,0.045057,-0.010866,-0.008793,0.065002,0.069744,0.053806,0.056942,0.074296,0.097144,0.065614,0.068786,0.106485,0.076782,0.122172,0.093210,0.077900,0.064748,0.161919,0.142319,0.095902,0.101071,0.161715,0.083575,0.131686,0.177942,0.139661,0.174289,0.173370,0.205284,0.215301,0.207098,0.235526,0.181282,0.231220,0.192978,0.216137,0.253749,0.283768,0.356219,0.288974,0.332493,0.328666,0.362349,0.386474,0.391561,0.410972,0.416853,0.396007,0.402065,0.432617,0.447767,0.407469,0.442356,0.449396,0.533037,0.507380,0.430563,0.434174,0.421858,0.441376,0.462565,0.492171,0.441231,0.437256,0.386417,0.423439,0.384979,0.384015,0.371313,0.392355,0.322282,0.332310,0.406281,0.286866,0.316875,0.367668,0.379460,0.247126,0.279485,0.300755,0.300342,0.213443,0.241090,0.214404,0.249264,0.221701,0.139901,0.132901,0.145165,0.141032,0.143144,0.130077,0.136515,0.131567,0.110565,0.119072,0.078247,0.063358,0.091505,0.075764,0.066439,0.119727,0.114769,0.095444,0.041279,-0.003529,0.060527,0.046143,0.051622,-0.035553,0.076003,0.032037,0.024627,0.045970,0.034243,0.037203,0.001137,0.033171,0.011097,0.012755,0.061173,-0.056578,0.010719,0.040842,0.017545,0.035832,-0.049842,0.052721,0.052326,-0.025244,0.034799,0.002784,0.027073,0.009046,0.024311,0.046220,0.034338,0.051972,0.032720,0.009101,0.056264,0.029242,0.007435,0.003195,0.036516,0.008589,0.030338,-0.043587,0.039365,-0.030225,0.059342,0.027196,0.087754,0.003140,-0.022755,0.004170,-0.030960,-0.028435,0.058094,0.034175,0.012587,-0.008376,-0.003184,-0.045092,-0.035523,0.034530,0.024228,0.042235,-0.054573,0.015565,-0.000962,0.022826,0.046313,-0.063534,-0.006290,-0.002160,-0.011975,0.008997,-0.000960,0.007334,0.025097,-0.004503,0.002509,0.034841,-0.012276,0.021056,-0.003503,0.018325,-0.021347,0.028762,0.027781,-0.008334,0.021512,-0.000489,0.024034,0.049203,0.019683,0.064357,-0.020568,0.011055,-0.024249,0.027555,0.026422,0.034848,0.010348,-0.004503,0.023402,0.069939,0.039961,-0.000397,0.020896,0.040973,0.039244,0.078651,0.090222,0.096627,0.101463,0.103477,0.137538,0.119257,0.130635,0.150573,0.129481,0.198416,0.230048,0.196491,0.239722,0.182975,0.227430,0.228070,0.264534,0.239498,0.261976,0.207239,0.208390,0.225220,0.193444,0.135002,0.147152,0.137898,0.156715,0.141451,0.147550,0.092873,0.105616,0.095300,0.109588,0.103373,0.052264,0.067489,0.013877,-0.022797,0.053043,0.007838,0.035800,0.053439,0.061428,0.035388,0.035825,0.020123,0.034344,-0.024482,0.010689,-0.008148,0.029256,0.030421,0.016619,0.019684,0.063341,0.031107,0.048325,-0.034175,-0.019334,0.024868,0.041776,0.085258,-0.015741,0.026560,0.034331,0.017490,-0.021663,0.061374,0.053441,0.048821,0.035740,0.061407,0.052094,0.007896,0.036098,0.047346,0.059630,0.047187,-0.005596,0.041193,-0.077074,-0.060794,-0.086386,-0.032802,0.003125,0.213534,0.328646,0.495910,0.734770,0.997929,1.190688,1.405232,1.535728,1.450892,1.330422,1.147608,1.004412,0.727959,0.517725,0.303457,0.088258,-0.024256,-0.167062,-0.182034,-0.209474,-0.192079,-0.087275,-0.045233,0.042685,0.009162,0.048456,0.046749,-0.002524,0.022303,0.009913,0.114931,0.004984,0.068307,0.019631,0.106136,0.065722,0.032627,0.055736,0.060899,0.036381,0.023635,0.011977,0.008996,0.052666,0.079416,0.081567,0.033171,0.065057,0.114957,0.070648,0.041427,0.081976,0.083037,0.110251,0.090541,0.031105,0.065148,0.145434,0.154325,0.125381,0.098035,0.152982,0.090479,0.109809,0.163328,0.131786,0.134317,0.161612,0.199884,0.237509,0.227276,0.265729,0.183317,0.261384,0.241979,0.258011,0.282427,0.297077,0.341558,0.277155,0.330650,0.324085,0.355105,0.384521,0.390799,0.391983,0.421415,0.386812,0.419512,0.456200,0.444626,0.432895,0.431747,0.495171,0.544259,0.515889,0.458745,0.436686,0.416364,0.465758,0.439384,0.497596,0.437993,0.456271,0.354382,0.451194,0.385092,0.392968,0.361880,0.375742,0.340129,0.314185,0.431867,0.301836,0.286388,0.366867,0.397066,0.259374,0.273653,0.290575,0.322625,0.212025,0.209352,0.242702,0.226821,0.163129,0.167137,0.123576,0.152832,0.133588,0.160026,0.093824,0.114507,0.140222,0.110513,0.089531,0.086902,0.082036,0.055714,0.087678,0.058576,0.147861,0.113871,0.056746,0.033997,0.021107,0.099510,0.043121,0.067156,-0.009096,0.086087,0.067696,0.005183,0.014726,0.045566,0.027912,0.044821,0.024993,0.012486,0.022169,0.047317,-0.041243,0.003297,0.043069,0.009930,0.011716,-0.012713,-0.003794,0.097848,-0.031608,0.044269,0.016512,0.025944,-0.009343,0.021414,0.060079,0.057987,0.071539,0.077063,0.039811,0.035742,0.064664,0.027497,0.026324,0.014177,0.007677,0.028789,-0.013247,0.028669,0.028221,0.049270,0.044438,0.027823,0.027760,-0.030369,0.009031,-0.011577,-0.013376,0.049890,0.041752,-0.048370,-0.014657,0.000716,-0.043719,-0.009948,0.030843,0.083393,0.031639,-0.072830,0.035279,-0.023202,0.029393,0.038019,-0.047838,-0.033402,0.022557,-0.025576,0.004858,-0.013216,0.025443,0.034857,-0.001498,0.018560,0.065757,0.002644,0.013407,-0.032639,0.037524,0.060413,0.008699,-0.009037,0.002247,0.045886,0.055636,0.053869,0.001452,0.062182,0.068164,0.063855,0.065581,0.077335,0.105175,0.078958,0.108925,0.115420,0.099553,0.138351,0.120120,0.158235,0.174767,0.244953,0.174860,0.229547,0.162238,0.209292,0.235139,0.250374,0.248022,0.243958,0.207821,0.240762,0.220589,0.184324,0.200530,0.149754,0.116535,0.177458,0.128625,0.159176,0.098954,0.100950,0.134521,0.082898,0.102081,0.054691,0.043241,0.052737,0.033706,0.061053,0.055541,0.052106,0.053534,0.051394,0.054520,0.011061,0.018556,0.032449,-0.022927,-0.004993,-0.006276,0.014249,0.052224,0.007984,0.000071,0.095118,0.019494,0.051599,0.000616,0.019283,0.028943,0.044113,0.063614,-0.017091,0.055237,0.041731,0.014465,-0.001486,0.030028,0.023632,0.044710,0.044947,0.071545,0.039550,-0.006843,0.031847,0.032195,0.052335,0.060219,0.001506,0.014403,-0.056677,-0.086734,-0.086191,-0.045939,0.033805,0.214839,0.352868,0.511270,0.735858,0.988245,1.204055,1.428043,1.535272,1.446167,1.334390,1.140670,0.989378,0.746082,0.512038,0.274258,0.081838,-0.042096,-0.151909,-0.197432,-0.221218,-0.169565,-0.089642,-0.018525,0.055444,0.019257,0.066170,0.007449,0.016564,0.001253,0.036231,0.098461,0.036314,0.050879,0.008672,0.076933,0.073823,0.066520,0.046081,0.056393,0.056481,0.052754,0.001398,0.021555,0.022532,0.082156,0.067508,0.034824,0.074465,0.112867,0.063581,0.041583,0.095094,0.072000,0.120088,0.088994,0.047536,0.078068,0.132909,0.172349,0.088147,0.105693,0.181615,0.115666,0.106394,0.173018,0.150564,0.156564,0.179265,0.222424,0.242541,0.217778,0.246479,0.150012,0.247550,0.215226,0.223514,0.287093,0.279010,0.319860,0.297522,0.317055,0.322441,0.364522,0.395968,0.370242,0.435471,0.389622,0.413217,0.403585,0.450102,0.466757,0.398466,0.447475,0.465039,0.515092,0.516806,0.433995,0.450539,0.421428,0.445164,0.469848,0.480207,0.421683,0.424954,0.377455,0.420467,0.398343,0.372452,0.369253,0.387861,0.321234,0.355307,0.421046,0.314432,0.297335,0.374547,0.373787,0.260987,0.259085,0.275971,0.267990,0.199756,0.246974,0.254016,0.239547,0.205856,0.190591,0.127570,0.140391,0.162205,0.150388,0.155311,0.132727,0.174824,0.110796,0.131391,0.121453,0.072708,0.054338,0.069905,0.050050,0.135700,0.103598,0.069638,0.040923,-0.008614,0.100590,0.046891,0.063631,-0.000414,0.084275,0.046759,-0.029627,0.019517,0.040977,0.015105,0.021828,0.018401,-0.001571,0.039136,0.057057,-0.055687,0.008658,0.045129,0.028711,0.010994,-0.036576,0.035433,0.087813,-0.015511,0.052455,0.017034,-0.005651,-0.026593,0.003378,0.041405,0.015606,0.035621,0.027395,0.022447,0.061786,0.013602,0.037297,-0.002617,0.030134,-0.010664,0.049561,-0.019585,0.011436,0.003176,0.024156,0.028778,0.049107,0.034773,-0.056662,0.005898,-0.017408,0.005727,0.037696,0.024299,-0.011428,-0.000290,-0.016496,-0.043701,0.027071,0.008335,0.007535,0.011293,-0.103982,0.014230,0.015787,-0.000759,0.039484,-0.044141,-0.042983,0.012082,0.010212,-0.034803,0.007234,-0.044489,0.030088,-0.001236,0.005828,-0.013034,0.041350,-0.021997,-0.000230,-0.009977,0.017988,0.031986,0.007345,0.039505,0.089984,0.008240,-0.019890,-0.045491,0.045160,0.046611,0.000316,0.010628,-0.016953,0.034352,0.054774,0.028746,0.014539,0.063665,0.053829,0.079775,0.104997,0.079172,0.067207,0.079541,0.125777,0.113307,0.085543,0.140939,0.166850,0.144338,0.165962,0.236420,0.185997,0.239256,0.189540,0.205378,0.236659,0.254833,0.244879,0.262903,0.215326,0.214979,0.235062,0.198340,0.141636,0.133977,0.155601,0.174350,0.126932,0.148253,0.066512,0.098938,0.124799,0.072525,0.089255,0.002922,0.044024,0.048640,0.022547,0.073467,0.025363,0.036864,0.030373,0.044554,0.033538,0.002112,0.003630,0.051762,-0.020744,-0.006760,-0.014298,-0.024215,0.056319,-0.027107,0.012257,0.067438,0.025080,0.041915,-0.021815,0.014592,-0.005450,0.011726,0.071499,-0.033682,0.050465,0.042999,0.031725,-0.008554,0.048513,0.017265,0.048163,0.013358,0.041257,0.034561,0.013219,0.047568,0.032255,0.090762,0.038086,0.022355,0.033807,-0.049727,-0.082931,-0.093166,-0.053231,0.044596,0.208459,0.348580,0.549957,0.739630,0.976575,1.213341,1.394072,1.517861,1.450528,1.324987,1.124272,1.030189,0.747900,0.514889,0.299910,0.111091,-0.014503,-0.136063,-0.194146,-0.198035,-0.168029,-0.086218,-0.030485,0.081143,0.023896,0.070328,0.032598,-0.000671,0.003193,0.017150,0.096155,-0.001496,0.057946,0.022832,0.090208,0.064581,0.002528,0.055080,0.020454,0.067622,0.036060,0.012640,0.013719,0.057321,0.119146,0.060213,0.070793,0.082159,0.109275,0.044302,0.072867,0.095338,0.097223,0.107018,0.069687,0.081772,0.038598,0.160892,0.153254,0.097463,0.103929,0.144352,0.098489,0.096456,0.158761,0.158126,0.168476,0.147793,0.207259,0.235359,0.201150,0.247597,0.169419,0.223161,0.258194,0.232103,0.253443,0.276733,0.348662,0.272360,0.308095,0.318972,0.365688,0.407808,0.389840,0.447910,0.406788,0.386120,0.410189,0.439273,0.427644,0.411298,0.455000,0.433905,0.525113,0.508205,0.452790,0.426548,0.414971,0.436868,0.481791,0.488536,0.456952,0.436666,0.371973,0.430644,0.388173,0.412564,0.360227,0.379704,0.340912,0.349256,0.387733,0.332398,0.302482,0.346526,0.346989,0.240593,0.272844,0.279143,0.315886,0.208434,0.208395,0.235364,0.220265,0.188501,0.168659,0.147885,0.146629,0.131958,0.141284,0.134023,0.136211,0.134813,0.127039,0.143492,0.099148,0.106560,0.077155,0.076315,0.068899,0.106456,0.103473,0.059460,0.026537,0.007998,0.076983,0.060111,0.053853,-0.037690,0.052522,0.025541,0.005889,0.026210,0.041815,0.018808,0.023319,0.016765,0.001497,0.040192,0.077783,-0.035358,0.006472,0.044287,0.021921,0.019610,-0.037630,0.025130,0.031256,-0.029758,0.043519,0.001790,0.041395,-0.030889,-0.002001,0.038720,0.023117,0.079175,0.069764,0.015783,0.051983,0.008141,0.055707,0.020706,0.012186,-0.029181,0.019516,-0.020074,0.040707,-0.026456,0.037870,0.054674,0.057022,0.051389,-0.026791,-0.010587,-0.030384,-0.009818,0.034870,0.009485,0.008411,-0.038157,0.021901,-0.036582,-0.015380,0.020859,0.026922,0.028550,-0.093145,0.017212,-0.033387,0.009513,0.059359,-0.048661,-0.036206,-0.017545,-0.010330,0.002793,0.001426,0.013435,-0.018846,0.007396,-0.017652,0.030229,-0.007123,-0.031453,-0.014039,0.023954,-0.008978,-0.000432,0.016246,0.019916,0.024573,-0.003531,0.022920,0.067418,0.015386,-0.013287,-0.016321,0.044859,0.043559,-0.005138,0.031299,-0.020209,0.039743,0.052101,0.049464,0.013335,0.044557,0.047139,0.044325,0.120247,0.075756,0.111212,0.091107,0.109005,0.129729,0.067196,0.133453,0.138701,0.170536,0.157664,0.228549,0.167256,0.263207,0.160760,0.225799,0.249409,0.245963,0.230230,0.229845,0.225988,0.184237,0.238031,0.194409,0.156779,0.150512,0.123230,0.150184,0.153000,0.136100,0.060866,0.117279,0.094840,0.081409,0.108379,0.048419,0.064844,0.045873,0.039380,0.043101,0.028394,0.049446,0.047498,0.064905,0.045981,0.060871,0.051740,0.033363,-0.008397,0.007817,-0.024404,-0.017036,0.061123,0.009586,0.017181,0.068424,-0.014168,0.049954,-0.005541,0.040380,0.020707,0.031972,0.062880,-0.037938,0.054810,0.050065,0.035996,0.025216,0.011257,0.014021,0.030513,0.038490,0.081033,0.025386,0.022166,0.023914,0.024512,0.053053,0.039579,-0.002387,0.024159,-0.077990,-0.089973,-0.070262,-0.031651,0.037250,0.199212,0.341421,0.494765,0.734648,1.006794,1.210109,1.416470,1.511608,1.467952,1.325094,1.157947,1.007216,0.766231,0.500960,0.266403,0.094782,-0.039408,-0.167079,-0.186832,-0.208151,-0.186521,-0.094463,-0.036137,0.082943,0.020031,0.044626,0.038330,0.005237,0.045892,0.014565,0.116228,0.036609,0.059899,0.007694,0.082340,0.064889,0.020361,0.028534,-0.009220,0.069757,0.032345,0.013099,-0.010119,0.041186,0.091810,0.050423,0.056278,0.076813,0.133314,0.070801,0.072849,0.089757,0.061363,0.116322,0.063497,0.052346,0.041246,0.114386,0.177518,0.095702,0.080037,0.177341,0.087766,0.129050,0.153691,0.136133,0.169835,0.178924,0.206014,0.234119,0.217212,0.247581,0.174935,0.238506,0.208798,0.241350,0.255297,0.276605,0.350129,0.258816,0.355931,0.328818,0.350549,0.389400,0.368659,0.425217,0.400590,0.400263,0.409708,0.401445,0.416997,0.442010,0.433985,0.480616,0.513941,0.510014,0.446747,0.441912,0.444577,0.445231,0.474302,0.485175,0.439892,0.450415,0.376157,0.452995,0.384310,0.411135,0.387547,0.376031,0.337283,0.330980,0.407965,0.317151,0.306778,0.373695,0.390987,0.262184,0.267624,0.282229,0.296730,0.256528,0.203875,0.232789,0.212175,0.215647,0.160694,0.140752,0.159676,0.150007,0.167965,0.136138,0.131439,0.148141,0.085186,0.112837,0.084093,0.085256,0.036333,0.091473,0.043051,0.127918,0.088150,0.056108,0.049901,0.028065,0.098527,0.075523,0.044053,0.012760,0.041731,0.059524,-0.005172,0.004706,0.047184,0.044793,0.033345,0.027039,0.020550,0.036966,0.070069,-0.041471,0.018657,0.039238,0.004916,0.007838,-0.050724,0.032640,0.092203,-0.032340,0.044061,0.019288,-0.015964,-0.021283,0.011921,0.008838,0.016922,0.080217,0.062638,0.031910,0.076061,0.028724,0.044444,-0.000844,0.015512,-0.017725,0.058068,0.000190,0.053166,-0.001585,0.028383,0.049554,0.068443,0.033973,-0.046032,0.012062,-0.042274,0.001624,0.069841,0.048499,-0.003562,-0.044227,0.008684,0.002061,-0.028025,0.011544,0.057103,0.029289,-0.025246,-0.000377,-0.011206,0.031278,0.028607,-0.060947,-0.017715,0.015540,0.009214,0.006856,-0.006036,0.018225,0.092293,0.024003,-0.022023,-0.007826,-0.035095,0.023668,-0.007017,-0.002651,0.010630,0.056957,-0.002685,-0.025743,0.015046,0.019751,-0.009636,0.028823,0.034622,0.031928,-0.015420,-0.006837,-0.001679,0.021241,0.032458,0.022402,-0.014001,0.004101,0.024041,0.026616,0.056779,0.019969,0.061165,0.042674,0.049137,0.108404,0.056212,0.121030,0.115935,0.127228,0.126243,0.078196,0.132711,0.125381,0.138538,0.185285,0.246947,0.164989,0.251711,0.180616,0.240013,0.243394,0.264034,0.258038,0.265006,0.193785,0.201320,0.231566,0.189038,0.157781,0.152954,0.143119,0.162163,0.131240,0.161998,0.107364,0.092268,0.107478,0.048253,0.088017,0.045192,0.041291,0.067335,-0.001774,0.069628,0.061317,0.055508,0.049882,0.030611,0.032031,0.023657,0.009602,0.018338,-0.021580,-0.011592,0.000682,-0.015923,0.032043,0.003081,0.017646,0.095804,0.025106,0.028608,0.012027,0.034794,0.003905,0.005121,0.083319,-0.031526,0.055862,0.043625,0.026331,0.019046,0.045070,0.011468,0.058237,0.026436,0.083285,0.009501,-0.008748,0.041206,0.045650,0.042880,0.052443,0.003750,0.044083,-0.080787,-0.095030,-0.082231,-0.044502,0.040344,0.202146,0.339509,0.512084,0.719680,0.976773,1.222405,1.392199,1.507299,1.469118,1.341669,1.126364,0.997014,0.729861,0.544915,0.302136,0.097713,-0.009996,-0.166680,-0.206245,-0.206516,-0.172542,-0.090120,-0.023458,0.059362,0.028610,0.060016,0.019995,0.011952,0.021472,0.025433,0.085859,0.005392,0.073702,0.040913,0.073505,0.050090,0.044886,0.028408,0.048461,0.063625,0.026231,0.013029,0.007347,0.077333,0.095946,0.062838,0.063116,0.056949,0.102175,0.075217,0.032806,0.105997,0.085801,0.123556,0.087997,0.056014,0.073013,0.126008,0.146346,0.113764,0.111815,0.170760,0.139999,0.121909,0.181656,0.139640,0.149769,0.165311,0.205166,0.241568,0.215331,0.233182,0.166320,0.237948,0.241344,0.244973,0.239571,0.294244,0.321202,0.287267,0.328391,0.352639,0.339515,0.398005,0.402764,0.414201,0.394476,0.386120,0.404971,0.427738,0.456802,0.402252,0.458869,0.463929,0.506998,0.520539,0.416166,0.463636,0.413086,0.444220,0.447975,0.491025,0.443915,0.414628,0.369019,0.433869,0.400678,0.363161,0.410441,0.399988,0.344530,0.328716,0.392932,0.321901,0.296106,0.382943,0.388733,0.267105,0.261515,0.293098,0.288563,0.250360,0.258585,0.266051,0.238893,0.183772,0.197994,0.132921,0.132647,0.167551,0.166352,0.117431,0.119825,0.136438,0.085830,0.125527,0.071953,0.092354,0.048958,0.064000,0.072075,0.120687,0.119120,0.049838,0.021220,-0.016568,0.048524,0.079100,0.086899,-0.008333,0.051356,0.043856,0.015332,0.010944,0.041531,0.030427,0.011084,0.015923,0.022970,0.014410,0.072289,-0.056665,0.017507,0.047356,0.026802,0.023604,-0.056847,0.021434,0.067989,0.003621,0.012753,0.006497,0.036903,-0.025227,0.003260,0.057269,0.034342,0.087190,0.054320,0.046212,0.057428,0.014390,0.032727,-0.013496,0.021028,-0.014028,0.029039,-0.015154,0.015312,0.016094,0.035515,0.047786,0.054393,0.038523,-0.033834,0.016836,-0.024345,-0.032838,0.064290,0.022718,-0.002347,-0.013143,-0.005875,-0.043756,-0.005165,0.007883,0.049947,0.017359,-0.047098,0.016966,0.007960,0.007306,0.050031,-0.008198,-0.003909,-0.015550,0.012337,-0.023663,0.052725,0.019028,-0.001219,-0.012823,0.027722,-0.002897,-0.002978,0.007745,0.031725,-0.000377,0.032791,0.017905,0.053512,0.016994,0.016769,-0.008741,0.039609,0.056451,0.032431,0.003945,-0.023945,0.070861,0.062885,0.037807,0.000737,0.054900,0.046489,0.066014,0.099144,0.070559,0.085517,0.101914,0.106326,0.138752,0.070294,0.132079,0.155531,0.162052,0.163789,0.219682,0.180969,0.249985,0.179879,0.209682,0.239324,0.270690,0.253960,0.225810,0.216140,0.233806,0.212839,0.193140,0.147727,0.144877,0.140149,0.181917,0.143548,0.164699,0.100354,0.102295,0.100346,0.047146,0.091623,0.078977,0.056781,0.053867,0.009373,0.055367,0.043286,0.069479,0.072674,0.059701,0.052989,0.032976,0.008605,0.007409,-0.033588,-0.009311,-0.010976,-0.019398,0.041717,0.000700,0.002986,0.062705,0.016808,0.043563,0.019654,-0.001935,-0.024005,0.023371,0.058390,-0.009415,0.037865,0.026856,0.017209,-0.013181,0.059912,0.014985,0.040849,0.073034,0.077910,0.037240,0.016446,0.051406,0.044471,0.071324,0.046489,0.007402,0.029770,-0.045078,-0.060015,-0.078810,-0.017921,0.008273,0.198230,0.356002,0.525514,0.723191,0.988856,1.249000,1.410138,1.551150,1.459670,1.337486,1.140589,1.020440,0.763784,0.502746,0.283259,0.117752,-0.020582,-0.153738,-0.181012,-0.191537,-0.186070,-0.085473,-0.045306,0.044755,0.032927,0.064929,0.011886,-0.002267,-0.000666,0.029284,0.074024,0.005202,0.039774,0.025124,0.044178,0.056741,0.066113,0.070562,0.001738,0.065302,0.021438,-0.002366,0.013550,0.076082,0.107975,0.049781,0.065086,0.034405,0.087975,0.058742,0.057292,0.099164,0.084365,0.118986,0.087799,0.060228,0.055193,0.139435,0.157504,0.116157,0.096261,0.162978,0.116124,0.096156,0.191763,0.124159,0.159483,0.155773,0.227306,0.227915,0.201770,0.230836,0.173361,0.235720,0.228484,0.179424,0.255522,0.283076,0.346541,0.299869,0.328454,0.341396,0.329263,0.406836,0.385078,0.409540,0.392785,0.411126,0.415393,0.456781,0.428891,0.426948,0.440590,0.462590,0.531203,0.522674,0.441130,0.443127,0.433898,0.470070,0.458632,0.461661,0.437501,0.421765,0.376160,0.435392,0.386638,0.395641,0.378708,0.414106,0.334527,0.312334,0.402824,0.313869,0.287642,0.351350,0.401548,0.273802,0.267618,0.284537,0.309210,0.225713,0.234087,0.202474,0.216154,0.192808,0.174339,0.134906,0.167210,0.146217,0.172039,0.134805,0.136425,0.142260,0.070393,0.106453,0.075704,0.091370,0.063906,0.095838,0.089450,0.125300,0.140754,0.072339,0.012927,0.010816,0.075698,0.061009,0.041437,-0.014194,0.061298,0.041610,0.014399,0.028280,0.055465,0.025653,0.037654,0.003356,-0.002255,0.010856,0.065651,-0.031556,0.006565,0.019446,0.026084,0.018399,-0.037130,0.020488,0.047393,-0.033805,0.059814,0.009304,0.003954,0.005090,-0.002325,0.073593,0.052628,0.064544,0.025115,0.060638,0.068637,0.020639,0.050455,0.014425,0.033439,-0.018175,0.043893,-0.040422,0.042462,0.004192,0.046905,0.028204,0.056520,0.016021,-0.024671,0.028023,-0.034344,0.000416,0.055641,0.024155,-0.037089,-0.043021,-0.005990,-0.062119,0.006125,0.017947,0.035451,-0.012822,-0.089807,0.010581,0.033198,0.002436,0.059502,-0.065194,-0.015901,0.018220,-0.005189,-0.010352,0.021271,0.000683,0.016368,-0.010279,0.021100,0.004104,0.038427,0.015608,-0.031100,0.011616,-0.032171,0.041267,-0.002044,-0.024858,-0.041231,0.012349,0.008967,-0.024892,-0.000513,0.022536,0.015291,0.024712,0.021612,0.027671,-0.007906,0.001196,0.011907,0.054274,0.024493,0.006249,-0.030467,0.018769,0.055907,0.052159,0.047942,0.036891,0.065498,0.068033,0.067914,0.082755,0.090563,0.114499,0.093268,0.109058,0.153560,0.115405,0.124621,0.140856,0.158227,0.182913,0.229371,0.208986,0.247901,0.181772,0.243748,0.228121,0.246829,0.232082,0.247722,0.190758,0.214364,0.238450,0.188538,0.149616,0.154860,0.120198,0.167880,0.152769,0.118806,0.112393,0.082436,0.108620,0.056951,0.108955,0.030811,0.025155,0.045567,0.009363,0.036463,0.036404,0.009476,0.034811,0.038994,0.064495,0.049262,0.036449,0.026832,-0.053095,-0.004196,0.015463,0.021150,0.049221,-0.012366,0.012699,0.097264,0.000371,0.035595,0.019892,0.020141,-0.011945,0.046242,0.063864,-0.021205,0.028763,0.071336,0.016952,0.014403,0.050050,0.012035,0.033953,0.057597,0.102769,0.000744,0.014998,0.038617,0.024629,0.072342,0.024740,0.009045,0.012910,-0.083005,-0.079248,-0.098602,-0.007161,0.028710,0.229056,0.339383,0.494975,0.761130,0.987439,1.213605,1.419495,1.505234,1.467236,1.342543,1.164211,1.019652,0.762917,0.516614,0.275606,0.135675,-0.041539,-0.167735,-0.187678,-0.183714,-0.176483,-0.073669,-0.057116,0.050694,0.002955,0.076164,0.003181,-0.010694,0.023020,0.038385,0.101154,0.028928,0.075785,0.015607,0.054798,0.064739,0.050717,0.058870,0.033508,0.043299,0.046628,0.015510,0.008011,0.053238,0.088626,0.073840,0.033239,0.053158,0.094338,0.095307,0.071932,0.077594,0.106758,0.141848,0.069853,0.014304,0.051869,0.160537,0.175347,0.090703,0.130881,0.130450,0.093175,0.106439,0.181977,0.163721,0.178976,0.149768,0.207426,0.243101,0.184214,0.205392,0.187497,0.237945,0.211199,0.229240,0.260125,0.281567,0.307683,0.308517,0.346333,0.324122,0.341360,0.400718,0.376721,0.432151,0.375608,0.389061,0.395149,0.417562,0.464808,0.412118,0.453484,0.429039,0.518998,0.519669,0.440281,0.421905,0.423801,0.449593,0.486646,0.479361,0.396380,0.411781,0.361670,0.438100,0.352733,0.392948,0.401597,0.392168,0.347521,0.306243,0.396733,0.333339,0.306102,0.376333,0.375243,0.265046,0.255951,0.297935,0.347306,0.223935,0.215491,0.203556,0.194494,0.208363,0.165058,0.128801,0.165780,0.167238,0.146426,0.111831,0.139277,0.135816,0.104540,0.117528,0.098782,0.120026,0.068196,0.102667,0.052430,0.133571,0.095703,0.074784,0.042908,0.019995,0.117399,0.073547,0.073304,0.001740,0.090164,0.026778,0.022782,0.003791,0.029502,0.039040,0.038114,0.006513,0.010882,0.030526,0.062717,-0.036781,0.067136,0.032886,0.018297,-0.009641,-0.034845,0.014386,0.074587,-0.018449,0.035205,0.037715,0.004021,-0.015243,0.016040,0.065674,0.050738,0.070131,0.063357,0.016318,0.076599,0.039068,0.058806,-0.021136,0.000167,0.004107,-0.000654,-0.015254,0.048364,-0.004109,0.036237,0.014287,0.052461,0.021655,-0.046770,-0.005388,-0.030059,-0.012134,0.077270,0.018120,-0.009028,-0.032150,-0.003120,-0.055600,-0.038566,-0.005673,0.038656,0.036174,-0.089249,0.002380,-0.016863,0.008952,0.062681,-0.064699,-0.017443,0.021828,0.006869,-0.011401,0.002384,-0.012413,0.006307,0.039635,-0.006874,-0.020890,0.009878,-0.017362,0.039344,0.008164,-0.006958,-0.002040,0.025154,-0.020111,-0.055548,-0.006066,0.008164,0.022228,-0.011432,0.009529,0.075371,-0.018500,0.000959,-0.021052,0.028485,0.053867,0.025786,-0.005588,-0.016240,0.033843,0.056455,0.030131,0.013510,0.041540,0.049112,0.045925,0.060214,0.086867,0.116720,0.069245,0.119861,0.152808,0.099382,0.129612,0.130654,0.154178,0.179331,0.238644,0.178031,0.225330,0.180141,0.224428,0.237869,0.249820,0.276071,0.240942,0.232314,0.192136,0.248785,0.211194,0.146727,0.168353,0.144270,0.151658,0.136664,0.162531,0.115964,0.091677,0.108295,0.077455,0.079872,0.083534,0.053412,0.042639,0.033431,0.053554,0.043628,0.014333,0.043550,0.063358,0.076015,0.018231,0.006560,0.037643,-0.026031,-0.014087,0.006550,-0.005518,0.012796,-0.014040,0.020728,0.040306,0.017165,0.031931,0.030353,0.059086,-0.010091,0.027174,0.042542,-0.020118,0.073002,0.033624,0.013028,-0.020695,0.053839,-0.029101,0.035005,0.035214,0.070915,0.041851,0.024782,0.019255,0.071531,0.047067,0.064313,0.018289,0.017332,-0.081648,-0.078678,-0.080242,-0.044561,0.017801,0.190578,0.323558,0.490947,0.717505,0.989808,1.222767,1.410505,1.553415,1.423410,1.340833,1.145268,1.018536,0.754164,0.515796,0.291135,0.092864,-0.009434,-0.174521,-0.184503,-0.208436,-0.186632,-0.092146,-0.029567,0.077647,0.079566,0.082756,0.017909,0.017920,0.025410,0.008581,0.084626,0.019426,0.079834,-0.005339,0.060406,0.064855,0.042146,0.066704,0.007656,0.096108,0.013203,-0.014907,0.014369,0.040641,0.098399,0.059402,0.051574,0.055425,0.105760,0.066341,0.072673,0.099501,0.072018,0.096291,0.084881,0.033088,0.032703,0.151612,0.124813,0.124948,0.106997,0.163211,0.083174,0.124163,0.164649,0.133955,0.167660,0.144784,0.169957,0.218663,0.214526,0.236348,0.187662,0.226846,0.239097,0.230654,0.240519,0.288589,0.329972,0.270796,0.331900,0.327209,0.343481,0.389137,0.374091,0.428432,0.383528,0.374814,0.409068,0.445344,0.442906,0.403263,0.441803,0.468747,0.492002,0.524712,0.409259,0.432984,0.412980,0.476647,0.492551,0.499787,0.435359,0.398799,0.380478,0.418811,0.381234,0.401995,0.373143,0.405099,0.305037,0.331995,0.407576,0.305636,0.309153,0.358025,0.394479,0.260349,0.263231,0.273073,0.304070,0.205159,0.225122,0.237388,0.210592,0.208888,0.186725,0.128623,0.158138,0.129601,0.142868,0.113099,0.119501,0.151041,0.105563,0.106018,0.087472,0.132438,0.051674,0.054370,0.044501,0.137083,0.126594,0.058626,0.051764,0.030370,0.078447,0.048220,0.058358,0.003438,0.069673,0.038180,-0.000385,0.048379,0.041735,0.043659,0.027714,0.027917,0.020201,0.042524,0.076293,-0.045633,0.005190,0.032380,0.028319,0.005183,0.010216,0.005404,0.081951,-0.038169,0.044120,0.046469,0.000617,-0.024310,0.006190,0.039585,0.044835,0.055686,0.057403,0.006357,0.035725,0.022063,0.012585,0.026665,-0.009172,-0.023805,0.045321,-0.031429,0.009691,0.035136,0.027666,0.027455,0.057146,0.039699,-0.029592,-0.006725,-0.030882,-0.011291,0.060392,0.006508,0.016082,-0.034885,0.005593,-0.047434,-0.034468,-0.000685,0.021342,0.013818,-0.077133,0.052955,0.005530,-0.024009,0.052292,-0.068635,0.013366,-0.000493,-0.023906,-0.033180,0.019074,0.019300,0.000339,-0.017939,0.012021,0.003882,0.004848,0.026141,0.064004,0.028165,0.013575,0.006945,0.039047,0.038600,0.020461,-0.012208,0.020424,0.046778,0.050836,0.047356,0.042285,0.025822,0.078237,0.058272,0.066901,0.067773,0.077496,0.105932,0.098752,0.139090,0.107457,0.125782,0.140785,0.133413,0.169789,0.275817,0.192402,0.237598,0.164626,0.216725,0.236808,0.241869,0.258833,0.236006,0.198716,0.208699,0.214621,0.203629,0.150908,0.116020,0.138877,0.139540,0.152676,0.141809,0.129885,0.123617,0.094473,0.044091,0.076160,0.029848,0.077294,0.043412,0.029569,0.054757,0.025822,0.038859,0.066953,0.052296,0.036602,0.054168,0.015515,0.022299,-0.059128,-0.000542,-0.005081,0.004142,0.036235,-0.003152,0.015035,0.075205,0.031209,0.049347,0.019988,0.025424,-0.001782,0.026298,0.036558,-0.011987,0.022817,0.025209,-0.012962,-0.009184,0.060790,0.018092,0.051301,0.071187,0.086892,0.017419,-0.002662,0.040445,0.030635,0.060045,0.059763,0.031434,0.000184,-0.087780,-0.085136,-0.074382,-0.013613,0.061840,0.195153,0.335548,0.512035,0.724521,0.993996,1.210054,1.369369,1.525648,1.453831,1.352861,1.145254,0.987480,0.739546,0.486904,0.270382,0.113558,-0.022349,-0.132500,-0.225659,-0.211726,-0.186459,-0.074321,-0.017087,0.067821,0.054185,0.058937,0.046415,-0.007190,-0.000903,0.033749,0.080967,0.028967,0.069238,0.034916,0.070327,0.057106,0.049160,0.035520,0.018234,0.067942,0.035833,0.009421,0.014011,0.081576,0.092335,0.053427,0.028899,0.067425,0.109123,0.083644,0.057741,0.116544,0.097456,0.138301,0.102227,0.075676,0.050407,0.123795,0.161434,0.115473,0.128152,0.183088,0.127878,0.121995,0.168124,0.123472,0.169284,0.161738,0.197659,0.236283,0.216359,0.234937,0.185952,0.199799,0.233327,0.250400,0.282715,0.293789,0.356236,0.282767,0.331313,0.337093,0.345739,0.383591,0.385937,0.410628,0.403495,0.390290,0.407274,0.425833,0.447698,0.422937,0.433415,0.439895,0.542270,0.492124,0.445581,0.478469,0.444982,0.455163,0.478022,0.522968,0.394995,0.419768,0.390854,0.421990,0.412080,0.399083,0.382186,0.387940,0.326239,0.322663,0.424830,0.300162,0.318882,0.384582,0.408507,0.246600,0.247648,0.280069,0.349870,0.235669,0.216699,0.247928,0.230675,0.164514,0.201041,0.131852,0.154589,0.145360,0.166588,0.106573,0.112599,0.150075,0.082493,0.106834,0.113806,0.096738,0.077249,0.094705,0.104655,0.116870,0.112520,0.062281,0.046932,0.018323,0.107072,0.044165,0.076752,-0.000827,0.063226,0.056469,0.006147,0.023999,0.034864,0.020095,0.014590,-0.001431,0.031200,0.010536,0.062248,-0.039871,0.028188,-0.000023,0.027947,0.016703,-0.029186,0.048651,0.055246,-0.055965,0.054307,-0.000116,-0.011326,-0.015829,0.024911,0.033344,0.066614,0.051135,0.048899,0.008008,0.063452,0.023491,0.013770,0.046278,0.006345,-0.015657,0.053652,0.004580,0.049364,-0.013481,0.045899,0.002179,0.073810,0.004516,-0.048575,0.005629,-0.019319,-0.011801,0.071944,0.034882,-0.004519,-0.041938,0.031215,-0.042080,0.011067,0.042764,0.043590,0.035512,-0.108693,0.007691,0.020173,0.026784,0.028249,-0.062401,-0.054776,0.006195,-0.028250,0.016957,0.017741,0.024790,0.021453,-0.026774,0.015270,-0.042741,0.036211,-0.023616,-0.029859,-0.017869,0.035081,0.003782,-0.017362,0.023271,0.022896,0.019755,0.021095,0.034281,0.076957,0.003578,0.005860,-0.040066,0.002174,0.043799,0.008529,0.001721,-0.003729,0.049442,0.028217,0.045289,-0.003935,0.053131,0.022488,0.066289,0.065958,0.073303,0.115682,0.099538,0.089642,0.126474,0.067923,0.110441,0.146572,0.161368,0.182223,0.246246,0.180554,0.237468,0.157705,0.210764,0.215037,0.235478,0.252216,0.248540,0.259063,0.182959,0.230274,0.171338,0.145305,0.138232,0.149908,0.158072,0.139406,0.139085,0.081103,0.097766,0.104655,0.075510,0.095870,0.044648,0.046125,0.017754,0.023664,0.048594,0.039724,0.059095,0.047536,0.032272,0.052211,0.035061,0.015174,0.020671,-0.008233,-0.002595,-0.011790,-0.022167,0.049123,-0.006033,0.023794,0.070525,-0.006712,0.054029,0.013472,0.036166,0.007542,-0.006336,0.076105,-0.009313,0.027900,0.028808,0.020787,0.003640,0.029326,0.032231,0.014756,0.020266,0.049866,0.015437,0.029373,0.071302,0.043647,0.058840,0.041659,0.023142,0.001442,-0.084095,-0.056652,-0.099054,-0.041994,0.021508,0.206385,0.332409,0.504361,0.743873,1.025532,1.214386,1.408074,1.546711,1.448329,1.313928,1.148925,1.022444,0.748833,0.516815,0.266820,0.103150,-0.000142,-0.164849,-0.199826,-0.213901,-0.189791,-0.084940,-0.020529,0.064680,0.016412,0.039768,0.030325,0.000884,0.042885,0.050726,0.133399,0.006274,0.076259,0.031903,0.082594,0.050949,0.060708,0.045467,0.030748,0.037759,0.045944,0.011625,0.022224,0.061184,0.101694,0.059822,0.066309,0.065077,0.077442,0.079635,0.043982,0.082343,0.071154,0.125856,0.086015,0.020136,0.047198,0.161239,0.144708,0.101283,0.120246,0.175801,0.114022,0.071109,0.190695,0.153793,0.201585,0.158291,0.168035,0.235574,0.205152,0.246202,0.188051,0.239337,0.226866,0.240203,0.250819,0.277710,0.346519,0.299130,0.347530,0.326629,0.313690,0.393103,0.382296,0.425365,0.385503,0.389808,0.397089,0.415123,0.458462,0.396685,0.450378,0.473528,0.541667,0.524674,0.441912,0.465075,0.441290,0.450470,0.439831,0.481261,0.440456,0.417326,0.402428,0.426102,0.394763,0.416545,0.377467,0.394704,0.347563,0.308785,0.416483,0.324218,0.305568,0.396794,0.368376,0.238184,0.284685,0.293119,0.303490,0.222682,0.236194,0.229352,0.209159,0.187886,0.194058,0.116874,0.152980,0.141340,0.155689,0.117770,0.130015,0.163959,0.105059,0.106969,0.072130,0.077348,0.069355,0.090209,0.077492,0.133959,0.137863,0.057635,0.008288,0.003488,0.070734,0.037512,0.057050,0.009066,0.086808,0.055897,0.034347,0.013314,0.013479,0.046416,-0.007963,0.012491,0.026372,0.027528,0.062649,-0.067304,0.015435,0.041651,0.029624,-0.002646,-0.048679,0.016346,0.073459,-0.020075,0.030145,-0.025221,0.021352,-0.026917,0.016789,0.040952,0.016756,0.066001,0.082959,0.037531,0.064871,0.030880,0.009846,-0.012945,-0.023889,0.017708,0.062027,-0.016741,0.034494,-0.018738,0.039401,0.057285,0.062256,0.020574,-0.062898,0.026382,-0.027046,-0.034238,0.035294,0.004870,-0.016166,-0.020387,-0.001824,-0.018379,-0.013814,0.028366,0.030542,0.065712,-0.070916,-0.002933,-0.011754,0.009752,0.020752,-0.053577,-0.045310,0.002425,-0.020269,-0.005719,0.009068,0.034561,-0.016170,-0.002255,-0.010856,-0.013048,-0.010725,0.012361,-0.007321,0.033740,0.006240,-0.015150,-0.005501,-0.012028,0.012001,-0.024582,-0.020114,-0.008873,0.010244,0.018496,0.020708,0.007947,-0.001243,0.011919,-0.017168,-0.027670,0.006550,-0.015085,-0.000980,0.001794,0.003722,0.014067,0.012481,0.002925,-0.006630,0.001616,-0.008943,-0.002946,0.039273,0.002733,0.006754,-0.010582,0.015301,0.011404,0.011510,0.003223,0.015513,0.019075,0.004246,-0.001719,0.013419,-0.013562,-0.010769,-0.000800,-0.026120,0.012414,-0.014444,-0.007072,-0.003199,0.000589,-0.005155,-0.001011,-0.000894,-0.006705,-0.011598,0.016222,-0.031566,-0.003086,-0.007033,0.006282,-0.021814,-0.007497,-0.001535,0.016051,0.004983,-0.017752,-0.007312,0.013291,-0.018012,-0.001180,-0.000137,-0.005787,0.040436,-0.006191,0.006746,-0.011495,0.007916,0.013062,-0.008819,-0.000821,-0.013429,-0.017166,0.015552,-0.008310,-0.036204,0.026480,-0.012031,-0.003696,0.024614,-0.002126,-0.002450,-0.018423,-0.024523,-0.002496,0.005442,0.004583,-0.007219,0.000304,-0.027558,0.006903,0.002421,0.029605,0.000112,-0.014140,-0.000761,-0.004917,0.006521,0.000403,-0.018899,-0.024536,0.003944,0.020747,0.001190,0.012199,0.015192,0.004002,-0.012217,0.002930,0.018106,0.007948,0.011224,-0.006938,-0.003035,-0.001781,-0.000770,0.017519,-0.035208,0.000458,-0.001192,-0.020573,0.010077,-0.010868,-0.005355,0.027732,0.015150,0.008617,0.005712,-0.002470,0.029991,0.012033,-0.011243,-0.021002,0.008503,-0.000838,-0.021434,0.006429,-0.004035,0.007960,0.006626,-0.009124,0.009493,-0.007469,-0.006493,-0.007984,0.016965,-0.004209,0.020587,0.026752,-0.011081,-0.043815,0.015668,-0.005130,-0.012993,-0.008831,-0.006222,0.019458,0.002399,0.019254,0.007413,-0.004638,-0.005855,0.008424,0.012306,0.014952,-0.003923,0.002628,0.008761,-0.005759,-0.017024,-0.012094,-0.003616,0.009933,0.018885,-0.020341,-0.008960,-0.005368,0.011921,-0.007922,-0.006446,-0.021180,0.007251,-0.002421,-0.009811,-0.003893,0.016905,-0.015073,-0.012625,0.018784,0.001137,0.010046,0.006026,-0.000530,-0.005224,0.012473,0.017435,0.016263,-0.017782,0.019574,-0.005369,-0.011325,-0.002540,0.012467,0.008107,-0.003831,0.012565,0.002098,-0.008595,-0.010621,0.006154,-0.001238,-0.020633,0.012707,-0.007204,0.023882,-0.021045,-0.002711,-0.010500,-0.014631,-0.007302,0.026559,0.002151,-0.011876,-0.027429,-0.025820,-0.008047,-0.009505
