lead_name,0,1,2,3,4,5,6,7,8,9,10,11,12,13,14,15,16,17,18,19,20,21,22,23,24,25,26,27,28,29,30,31,32,33,34,35,36,37,38,39,40,41,42,43,44,45,46,47,48,49,50,51,52,53,54,55,56,57,58,59,60,61,62,63,64,65,66,67,68,69,70,71,72,73,74,75,76,77,78,79,80,81,82,83,84,85,86,87,88,89,90,91,92,93,94,95,96,97,98,99,100,101,102,103,104,105,106,107,108,109,110,111,112,113,114,115,116,117,118,119,120,121,122,123,124,125,126,127,128,129,130,131,132,133,134,135,136,137,138,139,140,141,142,143,144,145,146,147,148,149,150,151,152,153,154,155,156,157,158,159,160,161,162,163,164,165,166,167,168,169,170,171,172,173,174,175,176,177,178,179,180,181,182,183,184,185,186,187,188,189,190,191,192,193,194,195,196,197,198,199,200,201,202,203,204,205,206,207,208,209,210,211,212,213,214,215,216,217,218,219,220,221,222,223,224,225,226,227,228,229,230,231,232,233,234,235,236,237,238,239,240,241,242,243,244,245,246,247,248,249,250,251,252,253,254,255,256,257,258,259,260,261,262,263,264,265,266,267,268,269,270,271,272,273,274,275,276,277,278,279,280,281,282,283,284,285,286,287,288,289,290,291,292,293,294,295,296,297,298,299,300,301,302,303,304,305,306,307,308,309,310,311,312,313,314,315,316,317,318,319,320,321,322,323,324,325,326,327,328,329,330,331,332,333,334,335,336,337,338,339,340,341,342,343,344,345,346,347,348,349,350,351,352,353,354,355,356,357,358,359,360,361,362,363,364,365,366,367,368,369,370,371,372,373,374,375,376,377,378,379,380,381,382,383,384,385,386,387,388,389,390,391,392,393,394,395,396,397,398,399,400,401,402,403,404,405,406,407,408,409,410,411,412,413,414,415,416,417,418,419,420,421,422,423,424,425,426,427,428,429,430,431,432,433,434,435,436,437,438,439,440,441,442,443,444,445,446,447,448,449,450,451,452,453,454,455,456,457,458,459,460,461,462,463,464,465,466,467,468,469,470,471,472,473,474,475,476,477,478,479,480,481,482,483,484,485,486,487,488,489,490,491,492,493,494,495,496,497,498,499,500,501,502,503,504,505,506,507,508,509,510,511,512,513,514,515,516,517,518,519,520,521,522,523,524,525,526,527,528,529,530,531,532,533,534,535,536,537,538,539,540,541,542,543,544,545,546,547,548,549,550,551,552,553,554,555,556,557,558,559,560,561,562,563,564,565,566,567,568,569,570,571,572,573,574,575,576,577,578,579,580,581,582,583,584,585,586,587,588,589,590,591,592,593,594,595,596,597,598,599,600,601,602,603,604,605,606,607,608,609,610,611,612,613,614,615,616,617,618,619,620,621,622,623,624,625,626,627,628,629,630,631,632,633,634,635,636,637,638,639,640,641,642,643,644,645,646,647,648,649,650,651,652,653,654,655,656,657,658,659,660,661,662,663,664,665,666,667,668,669,670,671,672,673,674,675,676,677,678,679,680,681,682,683,684,685,686,687,688,689,690,691,692,693,694,695,696,697,698,699,700,701,702,703,704,705,706,707,708,709,710,711,712,713,714,715,716,717,718,719,720,721,722,723,724,725,726,727,728,729,730,731,732,733,734,735,736,737,738,739,740,741,742,743,744,745,746,747,748,749,750,751,752,753,754,755,756,757,758,759,760,761,762,763,764,765,766,767,768,769,770,771,772,773,774,775,776,777,778,779,780,781,782,783,784,785,786,787,788,789,790,791,792,793,794,795,796,797,798,799,800,801,802,803,804,805,806,807,808,809,810,811,812,813,814,815,816,817,818,819,820,821,822,823,824,825,826,827,828,829,830,831,832,833,834,835,836,837,838,839,840,841,842,843,844,845,846,847,848,849,850,851,852,853,854,855,856,857,858,859,860,861,862,863,864,865,866,867,868,869,870,871,872,873,874,875,876,877,878,879,880,881,882,883,884,885,886,887,888,889,890,891,892,893,894,895,896,897,898,899,900,901,902,903,904,905,906,907,908,909,910,911,912,913,914,915,916,917,918,919,920,921,922,923,924,925,926,927,928,929,930,931,932,933,934,935,936,937,938,939,940,941,942,943,944,945,946,947,948,949,950,951,952,953,954,955,956,957,958,959,960,961,962,963,964,965,966,967,968,969,970,971,972,973,974,975,976,977,978,979,980,981,982,983,984,985,986,987,988,989,990,991,992,993,994,995,996,997,998,999,1000,1001,1002,1003,1004,1005,1006,1007,1008,1009,1010,1011,1012,1013,1014,1015,1016,1017,1018,1019,1020,1021,1022,1023,1024,1025,1026,1027,1028,1029,1030,1031,1032,1033,1034,1035,1036,1037,1038,1039,1040,1041,1042,1043,1044,1045,1046,1047,1048,1049,1050,1051,1052,1053,1054,1055,1056,1057,1058,1059,1060,1061,1062,1063,1064,1065,1066,1067,1068,1069,1070,1071,1072,1073,1074,1075,1076,1077,1078,1079,1080,1081,1082,1083,1084,1085,1086,1087,1088,1089,1090,1091,1092,1093,1094,1095,1096,1097,1098,1099,1100,1101,1102,1103,1104,1105,1106,1107,1108,1109,1110,1111,1112,1113,1114,1115,1116,1117,1118,1119,1120,1121,1122,1123,1124,1125,1126,1127,1128,1129,1130,1131,1132,1133,1134,1135,1136,1137,1138,1139,1140,1141,1142,1143,1144,1145,1146,1147,1148,1149,1150,1151,1152,1153,1154,1155,1156,1157,1158,1159,1160,1161,1162,1163,1164,1165,1166,1167,1168,1169,1170,1171,1172,1173,1174,1175,1176,1177,1178,1179,1180,1181,1182,1183,1184,1185,1186,1187,1188,1189,1190,1191,1192,1193,1194,1195,1196,1197,1198,1199,1200,1201,1202,1203,1204,1205,1206,1207,1208,1209,1210,1211,1212,1213,1214,1215,1216,1217,1218,1219,1220,1221,1222,1223,1224,1225,1226,1227,1228,1229,1230,1231,1232,1233,1234,1235,1236,1237,1238,1239,1240,1241,1242,1243,1244,1245,1246,1247,1248,1249,1250,1251,1252,1253,1254,1255,1256,1257,1258,1259,1260,1261,1262,1263,1264,1265,1266,1267,1268,1269,1270,1271,1272,1273,1274,1275,1276,1277,1278,1279,1280,1281,1282,1283,1284,1285,1286,1287,1288,1289,1290,1291,1292,1293,1294,1295,1296,1297,1298,1299,1300,1301,1302,1303,1304,1305,1306,1307,1308,1309,1310,1311,1312,1313,1314,1315,1316,1317,1318,1319,1320,1321,1322,1323,1324,1325,1326,1327,1328,1329,1330,1331,1332,1333,1334,1335,1336,1337,1338,1339,1340,1341,1342,1343,1344,1345,1346,1347,1348,1349,1350,1351,1352,1353,1354,1355,1356,1357,1358,1359,1360,1361,1362,1363,1364,1365,1366,1367,1368,1369,1370,1371,1372,1373,1374,1375,1376,1377,1378,1379,1380,1381,1382,1383,1384,1385,1386,1387,1388,1389,1390,1391,1392,1393,1394,1395,1396,1397,1398,1399,1400,1401,1402,1403,1404,1405,1406,1407,1408,1409,1410,1411,1412,1413,1414,1415,1416,1417,1418,1419,1420,1421,1422,1423,1424,1425,1426,1427,1428,1429,1430,1431,1432,1433,1434,1435,1436,1437,1438,1439,1440,1441,1442,1443,1444,1445,1446,1447,1448,1449,1450,1451,1452,1453,1454,1455,1456,1457,1458,1459,1460,1461,1462,1463,1464,1465,1466,1467,1468,1469,1470,1471,1472,1473,1474,1475,1476,1477,1478,1479,1480,1481,1482,1483,1484,1485,1486,1487,1488,1489,1490,1491,1492,1493,1494,1495,1496,1497,1498,1499,1500,1501,1502,1503,1504,1505,1506,1507,1508,1509,1510,1511,1512,1513,1514,1515,1516,1517,1518,1519,1520,1521,1522,1523,1524,1525,1526,1527,1528,1529,1530,1531,1532,1533,1534,1535,1536,1537,1538,1539,1540,1541,1542,1543,1544,1545,1546,1547,1548,1549,1550,1551,1552,1553,1554,1555,1556,1557,1558,1559,1560,1561,1562,1563,1564,1565,1566,1567,1568,1569,1570,1571,1572,1573,1574,1575,1576,1577,1578,1579,1580,1581,1582,1583,1584,1585,1586,1587,1588,1589,1590,1591,1592,1593,1594,1595,1596,1597,1598,1599,1600,1601,1602,1603,1604,1605,1606,1607,1608,1609,1610,1611,1612,1613,1614,1615,1616,1617,1618,1619,1620,1621,1622,1623,1624,1625,1626,1627,1628,1629,1630,1631,1632,1633,1634,1635,1636,1637,1638,1639,1640,1641,1642,1643,1644,1645,1646,1647,1648,1649,1650,1651,1652,1653,1654,1655,1656,1657,1658,1659,1660,1661,1662,1663,1664,1665,1666,1667,1668,1669,1670,1671,1672,1673,1674,1675,1676,1677,1678,1679,1680,1681,1682,1683,1684,1685,1686,1687,1688,1689,1690,1691,1692,1693,1694,1695,1696,1697,1698,1699,1700,1701,1702,1703,1704,1705,1706,1707,1708,1709,1710,1711,1712,1713,1714,1715,1716,1717,1718,1719,1720,1721,1722,1723,1724,1725,1726,1727,1728,1729,1730,1731,1732,1733,1734,1735,1736,1737,1738,1739,1740,1741,1742,1743,1744,1745,1746,1747,1748,1749,1750,1751,1752,1753,1754,1755,1756,1757,1758,1759,1760,1761,1762,1763,1764,1765,1766,1767,1768,1769,1770,1771,1772,1773,1774,1775,1776,1777,1778,1779,1780,1781,1782,1783,1784,1785,1786,1787,1788,1789,1790,1791,1792,1793,1794,1795,1796,1797,1798,1799,1800,1801,1802,1803,1804,1805,1806,1807,1808,1809,1810,1811,1812,1813,1814,1815,1816,1817,1818,1819,1820,1821,1822,1823,1824,1825,1826,1827,1828,1829,1830,1831,1832,1833,1834,1835,1836,1837,1838,1839,1840,1841,1842,1843,1844,1845,1846,1847,1848,1849,1850,1851,1852,1853,1854,1855,1856,1857,1858,1859,1860,1861,1862,1863,1864,1865,1866,1867,1868,1869,1870,1871,1872,1873,1874,1875,1876,1877,1878,1879,1880,1881,1882,1883,1884,1885,1886,1887,1888,1889,1890,1891,1892,1893,1894,1895,1896,1897,1898,1899,1900,1901,1902,1903,1904,1905,1906,1907,1908,1909,1910,1911,1912,1913,1914,1915,1916,1917,1918,1919,1920,1921,1922,1923,1924,1925,1926,1927,1928,1929,1930,1931,1932,1933,1934,1935,1936,1937,1938,1939,1940,1941,1942,1943,1944,1945,1946,1947,1948,1949,1950,1951,1952,1953,1954,1955,1956,1957,1958,1959,1960,1961,1962,1963,1964,1965,1966,1967,1968,1969,1970,1971,1972,1973,1974,1975,1976,1977,1978,1979,1980,1981,1982,1983,1984,1985,1986,1987,1988,1989,1990,1991,1992,1993,1994,1995,1996,1997,1998,1999,2000,2001,2002,2003,2004,2005,2006,2007,2008,2009,2010,2011,2012,2013,2014,2015,2016,2017,2018,2019,2020,2021,2022,2023,2024,2025,2026,2027,2028,2029,2030,2031,2032,2033,2034,2035,2036,2037,2038,2039,2040,2041,2042,2043,2044,2045,2046,2047,2048,2049,2050,2051,2052,2053,2054,2055,2056,2057,2058,2059,2060,2061,2062,2063,2064,2065,2066,2067,2068,2069,2070,2071,2072,2073,2074,2075,2076,2077,2078,2079,2080,2081,2082,2083,2084,2085,2086,2087,2088,2089,2090,2091,2092,2093,2094,2095,2096,2097,2098,2099,2100,2101,2102,2103,2104,2105,2106,2107,2108,2109,2110,2111,2112,2113,2114,2115,2116,2117,2118,2119,2120,2121,2122,2123,2124,2125,2126,2127,2128,2129,2130,2131,2132,2133,2134,2135,2136,2137,2138,2139,2140,2141,2142,2143,2144,2145,2146,2147,2148,2149,2150,2151,2152,2153,2154,2155,2156,2157,2158,2159,2160,2161,2162,2163,2164,2165,2166,2167,2168,2169,2170,2171,2172,2173,2174,2175,2176,2177,2178,2179,2180,2181,2182,2183,2184,2185,2186,2187,2188,2189,2190,2191,2192,2193,2194,2195,2196,2197,2198,2199,2200,2201,2202,2203,2204,2205,2206,2207,2208,2209,2210,2211,2212,2213,2214,2215,2216,2217,2218,2219,2220,2221,2222,2223,2224,2225,2226,2227,2228,2229,2230,2231,2232,2233,2234,2235,2236,2237,2238,2239,2240,2241,2242,2243,2244,2245,2246,2247,2248,2249,2250,2251,2252,2253,2254,2255,2256,2257,2258,2259,2260,2261,2262,2263,2264,2265,2266,2267,2268,2269,2270,2271,2272,2273,2274,2275,2276,2277,2278,2279,2280,2281,2282,2283,2284,2285,2286,2287,2288,2289,2290,2291,2292,2293,2294,2295,2296,2297,2298,2299,2300,2301,2302,2303,2304,2305,2306,2307,2308,2309,2310,2311,2312,2313,2314,2315,2316,2317,2318,2319,2320,2321,2322,2323,2324,2325,2326,2327,2328,2329,2330,2331,2332,2333,2334,2335,2336,2337,2338,2339,2340,2341,2342,2343,2344,2345,2346,2347,2348,2349,2350,2351,2352,2353,2354,2355,2356,2357,2358,2359,2360,2361,2362,2363,2364,2365,2366,2367,2368,2369,2370,2371,2372,2373,2374,2375,2376,2377,2378,2379,2380,2381,2382,2383,2384,2385,2386,2387,2388,2389,2390,2391,2392,2393,2394,2395,2396,2397,2398,2399,2400,2401,2402,2403,2404,2405,2406,2407,2408,2409,2410,2411,2412,2413,2414,2415,2416,2417,2418,2419,2420,2421,2422,2423,2424,2425,2426,2427,2428,2429,2430,2431,2432,2433,2434,2435,2436,2437,2438,2439,2440,2441,2442,2443,2444,2445,2446,2447,2448,2449,2450,2451,2452,2453,2454,2455,2456,2457,2458,2459,2460,2461,2462,2463,2464,2465,2466,2467,2468,2469,2470,2471,2472,2473,2474,2475,2476,2477,2478,2479,2480,2481,2482,2483,2484,2485,2486,2487,2488,2489,2490,2491,2492,2493,2494,2495,2496,2497,2498,2499,2500,2501,2502,2503,2504,2505,2506,2507,2508,2509,2510,2511,2512,2513,2514,2515,2516,2517,2518,2519,2520,2521,2522,2523,2524,2525,2526,2527,2528,2529,2530,2531,2532,2533,2534,2535,2536,2537,2538,2539,2540,2541,2542,2543,2544,2545,2546,2547,2548,2549,2550,2551,2552,2553,2554,2555,2556,2557,2558,2559,2560,2561,2562,2563,2564,2565,2566,2567,2568,2569,2570,2571,2572,2573,2574,2575,2576,2577,2578,2579,2580,2581,2582,2583,2584,2585,2586,2587,2588,2589,2590,2591,2592,2593,2594,2595,2596,2597,2598,2599,2600,2601,2602,2603,2604,2605,2606,2607,2608,2609,2610,2611,2612,2613,2614,2615,2616,2617,2618,2619,2620,2621,2622,2623,2624,2625,2626,2627,2628,2629,2630,2631,2632,2633,2634,2635,2636,2637,2638,2639,2640,2641,2642,2643,2644,2645,2646,2647,2648,2649,2650,2651,2652,2653,2654,2655,2656,2657,2658,2659,2660,2661,2662,2663,2664,2665,2666,2667,2668,2669,2670,2671,2672,2673,2674,2675,2676,2677,2678,2679,2680,2681,2682,2683,2684,2685,2686,2687,2688,2689,2690,2691,2692,2693,2694,2695,2696,2697,2698,2699,2700,2701,2702,2703,2704,2705,2706,2707,2708,2709,2710,2711,2712,2713,2714,2715,2716,2717,2718,2719,2720,2721,2722,2723,2724,2725,2726,2727,2728,2729,2730,2731,2732,2733,2734,2735,2736,2737,2738,2739,2740,2741,2742,2743,2744,2745,2746,2747,2748,2749,2750,2751,2752,2753,2754,2755,2756,2757,2758,2759,2760,2761,2762,2763,2764,2765,2766,2767,2768,2769,2770,2771,2772,2773,2774,2775,2776,2777,2778,2779,2780,2781,2782,2783,2784,2785,2786,2787,2788,2789,2790,2791,2792,2793,2794,2795,2796,2797,2798,2799,2800,2801,2802,2803,2804,2805,2806,2807,2808,2809,2810,2811,2812,2813,2814,2815,2816,2817,2818,2819,2820,2821,2822,2823,2824,2825,2826,2827,2828,2829,2830,2831,2832,2833,2834,2835,2836,2837,2838,2839,2840,2841,2842,2843,2844,2845,2846,2847,2848,2849,2850,2851,2852,2853,2854,2855,2856,2857,2858,2859,2860,2861,2862,2863,2864,2865,2866,2867,2868,2869,2870,2871,2872,2873,2874,2875,2876,2877,2878,2879,2880,2881,2882,2883,2884,2885,2886,2887,2888,2889,2890,2891,2892,2893,2894,2895,2896,2897,2898,2899,2900,2901,2902,2903,2904,2905,2906,2907,2908,2909,2910,2911,2912,2913,2914,2915,2916,2917,2918,2919,2920,2921,2922,2923,2924,2925,2926,2927,2928,2929,2930,2931,2932,2933,2934,2935,2936,2937,2938,2939,2940,2941,2942,2943,2944,2945,2946,2947,2948,2949,2950,2951,2952,2953,2954,2955,2956,2957,2958,2959,2960,2961,2962,2963,2964,2965,2966,2967,2968,2969,2970,2971,2972,2973,2974,2975,2976,2977,2978,2979,2980,2981,2982,2983,2984,2985,2986,2987,2988,2989,2990,2991,2992,2993,2994,2995,2996,2997,2998,2999,3000,3001,3002,3003,3004,3005,3006,3007,3008,3009,3010,3011,3012,3013,3014,3015,3016,3017,3018,3019,3020,3021,3022,3023,3024,3025,3026,3027,3028,3029,3030,3031,3032,3033,3034,3035,3036,3037,3038,3039,3040,3041,3042,3043,3044,3045,3046,3047,3048,3049,3050,3051,3052,3053,3054,3055,3056,3057,3058,3059,3060,3061,3062,3063,3064,3065,3066,3067,3068,3069,3070,3071,3072,3073,3074,3075,3076,3077,3078,3079,3080,3081,3082,3083,3084,3085,3086,3087,3088,3089,3090,3091,3092,3093,3094,3095,3096,3097,3098,3099,3100,3101,3102,3103,3104,3105,3106,3107,3108,3109,3110,3111,3112,3113,3114,3115,3116,3117,3118,3119,3120,3121,3122,3123,3124,3125,3126,3127,3128,3129,3130,3131,3132,3133,3134,3135,3136,3137,3138,3139,3140,3141,3142,3143,3144,3145,3146,3147,3148,3149,3150,3151,3152,3153,3154,3155,3156,3157,3158,3159,3160,3161,3162,3163,3164,3165,3166,3167,3168,3169,3170,3171,3172,3173,3174,3175,3176,3177,3178,3179,3180,3181,3182,3183,3184,3185,3186,3187,3188,3189,3190,3191,3192,3193,3194,3195,3196,3197,3198,3199,3200,3201,3202,3203,3204,3205,3206,3207,3208,3209,3210,3211,3212,3213,3214,3215,3216,3217,3218,3219,3220,3221,3222,3223,3224,3225,3226,3227,3228,3229,3230,3231,3232,3233,3234,3235,3236,3237,3238,3239,3240,3241,3242,3243,3244,3245,3246,3247,3248,3249,3250,3251,3252,3253,3254,3255,3256,3257,3258,3259,3260,3261,3262,3263,3264,3265,3266,3267,3268,3269,3270,3271,3272,3273,3274,3275,3276,3277,3278,3279,3280,3281,3282,3283,3284,3285,3286,3287,3288,3289,3290,3291,3292,3293,3294,3295,3296,3297,3298,3299,3300,3301,3302,3303,3304,3305,3306,3307,3308,3309,3310,3311,3312,3313,3314,3315,3316,3317,3318,3319,3320,3321,3322,3323,3324,3325,3326,3327,3328,3329,3330,3331,3332,3333,3334,3335,3336,3337,3338,3339,3340,3341,3342,3343,3344,3345,3346,3347,3348,3349,3350,3351,3352,3353,3354,3355,3356,3357,3358,3359,3360,3361,3362,3363,3364,3365,3366,3367,3368,3369,3370,3371,3372,3373,3374,3375,3376,3377,3378,3379,3380,3381,3382,3383,3384,3385,3386,3387,3388,3389,3390,3391,3392,3393,3394,3395,3396,3397,3398,3399,3400,3401,3402,3403,3404,3405,3406,3407,3408,3409,3410,3411,3412,3413,3414,3415,3416,3417,3418,3419,3420,3421,3422,3423,3424,3425,3426,3427,3428,3429,3430,3431,3432,3433,3434,3435,3436,3437,3438,3439,3440,3441,3442,3443,3444,3445,3446,3447,3448,3449,3450,3451,3452,3453,3454,3455,3456,3457,3458,3459,3460,3461,3462,3463,3464,3465,3466,3467,3468,3469,3470,3471,3472,3473,3474,3475,3476,3477,3478,3479,3480,3481,3482,3483,3484,3485,3486,3487,3488,3489,3490,3491,3492,3493,3494,3495,3496,3497,3498,3499,3500,3501,3502,3503,3504,3505,3506,3507,3508,3509,3510,3511,3512,3513,3514,3515,3516,3517,3518,3519,3520,3521,3522,3523,3524,3525,3526,3527,3528,3529,3530,3531,3532,3533,3534,3535,3536,3537,3538,3539,3540,3541,3542,3543,3544,3545,3546,3547,3548,3549,3550,3551,3552,3553,3554,3555,3556,3557,3558,3559,3560,3561,3562,3563,3564,3565,3566,3567,3568,3569,3570,3571,3572,3573,3574,3575,3576,3577,3578,3579,3580,3581,3582,3583,3584,3585,3586,3587,3588,3589,3590,3591,3592,3593,3594,3595,3596,3597,3598,3599,3600,3601,3602,3603,3604,3605,3606,3607,3608,3609,3610,3611,3612,3613,3614,3615,3616,3617,3618,3619,3620,3621,3622,3623,3624,3625,3626,3627,3628,3629,3630,3631,3632,3633,3634,3635,3636,3637,3638,3639,3640,3641,3642,3643,3644,3645,3646,3647,3648,3649,3650,3651,3652,3653,3654,3655,3656,3657,3658,3659,3660,3661,3662,3663,3664,3665,3666,3667,3668,3669,3670,3671,3672,3673,3674,3675,3676,3677,3678,3679,3680,3681,3682,3683,3684,3685,3686,3687,3688,3689,3690,3691,3692,3693,3694,3695,3696,3697,3698,3699,3700,3701,3702,3703,3704,3705,3706,3707,3708,3709,3710,3711,3712,3713,3714,3715,3716,3717,3718,3719,3720,3721,3722,3723,3724,3725,3726,3727,3728,3729,3730,3731,3732,3733,3734,3735,3736,3737,3738,3739,3740,3741,3742,3743,3744,3745,3746,3747,3748,3749,3750,3751,3752,3753,3754,3755,3756,3757,3758,3759,3760,3761,3762,3763,3764,3765,3766,3767,3768,3769,3770,3771,3772,3773,3774,3775,3776,3777,3778,3779,3780,3781,3782,3783,3784,3785,3786,3787,3788,3789,3790,3791,3792,3793,3794,3795,3796,3797,3798,3799,3800,3801,3802,3803,3804,3805,3806,3807,3808,3809,3810,3811,3812,3813,3814,3815,3816,3817,3818,3819,3820,3821,3822,3823,3824,3825,3826,3827,3828,3829,3830,3831,3832,3833,3834,3835,3836,3837,3838,3839,3840,3841,3842,3843,3844,3845,3846,3847,3848,3849,3850,3851,3852,3853,3854,3855,3856,3857,3858,3859,3860,3861,3862,3863,3864,3865,3866,3867,3868,3869,3870,3871,3872,3873,3874,3875,3876,3877,3878,3879,3880,3881,3882,3883,3884,3885,3886,3887,3888,3889,3890,3891,3892,3893,3894,3895,3896,3897,3898,3899,3900,3901,3902,3903,3904,3905,3906,3907,3908,3909,3910,3911,3912,3913,3914,3915,3916,3917,3918,3919,3920,3921,3922,3923,3924,3925,3926,3927,3928,3929,3930,3931,3932,3933,3934,3935,3936,3937,3938,3939,3940,3941,3942,3943,3944,3945,3946,3947,3948,3949,3950,3951,3952,3953,3954,3955,3956,3957,3958,3959,3960,3961,3962,3963,3964,3965,3966,3967,3968,3969,3970,3971,3972,3973,3974,3975,3976,3977,3978,3979,3980,3981,3982,3983,3984,3985,3986,3987,3988,3989,3990,3991,3992,3993,3994,3995,3996,3997,3998,3999,4000,4001,4002,4003,4004,4005,4006,4007,4008,4009,4010,4011,4012,4013,4014,4015,4016,4017,4018,4019,4020,4021,4022,4023,4024,4025,4026,4027,4028,4029,4030,4031,4032,4033,4034,4035,4036,4037,4038,4039,4040,4041,4042,4043,4044,4045,4046,4047,4048,4049,4050,4051,4052,4053,4054,4055,4056,4057,4058,4059,4060,4061,4062,4063,4064,4065,4066,4067,4068,4069,4070,4071,4072,4073,4074,4075,4076,4077,4078,4079,4080,4081,4082,4083,4084,4085,4086,4087,4088,4089,4090,4091,4092,4093,4094,4095,4096,4097,4098,4099,4100,4101,4102,4103,4104,4105,4106,4107,4108,4109,4110,4111,4112,4113,4114,4115,4116,4117,4118,4119,4120,4121,4122,4123,4124,4125,4126,4127,4128,4129,4130,4131,4132,4133,4134,4135,4136,4137,4138,4139,4140,4141,4142,4143,4144,4145,4146,4147,4148,4149,4150,4151,4152,4153,4154,4155,4156,4157,4158,4159,4160,4161,4162,4163,4164,4165,4166,4167,4168,4169,4170,4171,4172,4173,4174,4175,4176,4177,4178,4179,4180,4181,4182,4183,4184,4185,4186,4187,4188,4189,4190,4191,4192,4193,4194,4195,4196,4197,4198,4199,4200,4201,4202,4203,4204,4205,4206,4207,4208,4209,4210,4211,4212,4213,4214,4215,4216,4217,4218,4219,4220,4221,4222,4223,4224,4225,4226,4227,4228,4229,4230,4231,4232,4233,4234,4235,4236,4237,4238,4239,4240,4241,4242,4243,4244,4245,4246,4247,4248,4249,4250,4251,4252,4253,4254,4255,4256,4257,4258,4259,4260,4261,4262,4263,4264,4265,4266,4267,4268,4269,4270,4271,4272,4273,4274,4275,4276,4277,4278,4279,4280,4281,4282,4283,4284,4285,4286,4287,4288,4289,4290,4291,4292,4293,4294,4295,4296,4297,4298,4299,4300,4301,4302,4303,4304,4305,4306,4307,4308,4309,4310,4311,4312,4313,4314,4315,4316,4317,4318,4319,4320,4321,4322,4323,4324,4325,4326,4327,4328,4329,4330,4331,4332,4333,4334,4335,4336,4337,4338,4339,4340,4341,4342,4343,4344,4345,4346,4347,4348,4349,4350,4351,4352,4353,4354,4355,4356,4357,4358,4359,4360,4361,4362,4363,4364,4365,4366,4367,4368,4369,4370,4371,4372,4373,4374,4375,4376,4377,4378,4379,4380,4381,4382,4383,4384,4385,4386,4387,4388,4389,4390,4391,4392,4393,4394,4395,4396,4397,4398,4399,4400,4401,4402,4403,4404,4405,4406,4407,4408,4409,4410,4411,4412,4413,4414,4415,4416,4417,4418,4419,4420,4421,4422,4423,4424,4425,4426,4427,4428,4429,4430,4431,4432,4433,4434,4435,4436,4437,4438,4439,4440,4441,4442,4443,4444,4445,4446,4447,4448,4449,4450,4451,4452,4453,4454,4455,4456,4457,4458,4459,4460,4461,4462,4463,4464,4465,4466,4467,4468,4469,4470,4471,4472,4473,4474,4475,4476,4477,4478,4479,4480,4481,4482,4483,4484,4485,4486,4487,4488,4489,4490,4491,4492,4493,4494,4495,4496,4497,4498,4499,4500,4501,4502,4503,4504,4505,4506,4507,4508,4509,4510,4511,4512,4513,4514,4515,4516,4517,4518,4519,4520,4521,4522,4523,4524,4525,4526,4527,4528,4529,4530,4531,4532,4533,4534,4535,4536,4537,4538,4539,4540,4541,4542,4543,4544,4545,4546,4547,4548,4549,4550,4551,4552,4553,4554,4555,4556,4557,4558,4559,4560,4561,4562,4563,4564,4565,4566,4567,4568,4569,4570,4571,4572,4573,4574,4575,4576,4577,4578,4579,4580,4581,4582,4583,4584,4585,4586,4587,4588,4589,4590,4591,4592,4593,4594,4595,4596,4597,4598,4599,4600,4601,4602,4603,4604,4605,4606,4607,4608,4609,4610,4611,4612,4613,4614,4615,4616,4617,4618,4619,4620,4621,4622,4623,4624,4625,4626,4627,4628,4629,4630,4631,4632,4633,4634,4635,4636,4637,4638,4639,4640,4641,4642,4643,4644,4645,4646,4647,4648,4649,4650,4651,4652,4653,4654,4655,4656,4657,4658,4659,4660,4661,4662,4663,4664,4665,4666,4667,4668,4669,4670,4671,4672,4673,4674,4675,4676,4677,4678,4679,4680,4681,4682,4683,4684,4685,4686,4687,4688,4689,4690,4691,4692,4693,4694,4695,4696,4697,4698,4699,4700,4701,4702,4703,4704,4705,4706,4707,4708,4709,4710,4711,4712,4713,4714,4715,4716,4717,4718,4719,4720,4721,4722,4723,4724,4725,4726,4727,4728,4729,4730,4731,4732,4733,4734,4735,4736,4737,4738,4739,4740,4741,4742,4743,4744,4745,4746,4747,4748,4749,4750,4751,4752,4753,4754,4755,4756,4757,4758,4759,4760,4761,4762,4763,4764,4765,4766,4767,4768,4769,4770,4771,4772,4773,4774,4775,4776,4777,4778,4779,4780,4781,4782,4783,4784,4785,4786,4787,4788,4789,4790,4791,4792,4793,4794,4795,4796,4797,4798,4799,4800,4801,4802,4803,4804,4805,4806,4807,4808,4809,4810,4811,4812,4813,4814,4815,4816,4817,4818,4819,4820,4821,4822,4823,4824,4825,4826,4827,4828,4829,4830,4831,4832,4833,4834,4835,4836,4837,4838,4839,4840,4841,4842,4843,4844,4845,4846,4847,4848,4849,4850,4851,4852,4853,4854,4855,4856,4857,4858,4859,4860,4861,4862,4863,4864,4865,4866,4867,4868,4869,4870,4871,4872,4873,4874,4875,4876,4877,4878,4879,4880,4881,4882,4883,4884,4885,4886,4887,4888,4889,4890,4891,4892,4893,4894,4895,4896,4897,4898,4899,4900,4901,4902,4903,4904,4905,4906,4907,4908,4909,4910,4911,4912,4913,4914,4915,4916,4917,4918,4919,4920,4921,4922,4923,4924,4925,4926,4927,4928,4929,4930,4931,4932,4933,4934,4935,4936,4937,4938,4939,4940,4941,4942,4943,4944,4945,4946,4947,4948,4949,4950,4951,4952,4953,4954,4955,4956,4957,4958,4959,4960,4961,4962,4963,4964,4965,4966,4967,4968,4969,4970,4971,4972,4973,4974,4975,4976,4977,4978,4979,4980,4981,4982,4983,4984,4985,4986,4987,4988,4989,4990,4991,4992,4993,4994,4995,4996,4997,4998,4999
I,-0.013233,-0.009098,0.003545,0.010622,-0.017772,-0.003503,-0.020527,0.001112,-0.010007,0.011275,0.006507,0.004054,-0.015991,0.002915,-0.009758,-0.006186,-0.025666,-0.001800,0.003588,-0.011702,-0.005625,-0.032467,0.008287,0.016642,0.009256,-0.015477,-0.006222,-0.040421,-0.004462,0.027480,-0.013856,0.013974,-0.002687,-0.013014,-0.015954,0.003509,0.002560,-0.006334,-0.009286,-0.002355,-0.012563,-0.023750,-0.012086,-0.012776,-0.016687,0.004552,0.013785,0.006286,0.021924,-0.029856,-0.007204,-0.015625,0.002753,-0.009713,0.012389,0.021786,-0.019924,0.010727,0.029260,-0.012478,0.001466,-0.003959,0.044690,0.016517,-0.028380,-0.030135,0.016411,0.012234,0.020651,-0.041130,0.020034,-0.005055,0.024190,0.019577,0.025613,0.031581,0.015149,0.044857,0.038967,0.032852,0.065119,0.056090,0.069851,0.061673,0.032000,0.084525,0.082998,0.097424,0.076448,0.095533,0.088290,0.098551,0.111661,0.093020,0.128872,0.115124,0.123883,0.127564,0.081560,0.124119,0.110476,0.114679,0.104856,0.058863,0.047235,0.088758,0.031827,0.068474,0.073393,0.061558,0.061330,0.045666,0.042163,0.025449,0.022449,0.057856,-0.007297,-0.008371,0.032520,0.010026,0.017788,-0.004205,0.063665,0.018521,0.010211,0.017639,0.029847,0.033764,0.031509,0.018451,-0.000413,0.003519,0.047198,-0.009566,0.024018,-0.034623,0.014085,0.000655,0.000692,0.013928,0.036559,0.014392,0.049164,0.043776,0.006058,0.044999,0.023672,0.024784,0.002345,0.016078,0.012409,-0.008903,-0.000443,0.002092,-0.004587,-0.049802,-0.030094,-0.021972,-0.019694,0.053129,0.163880,0.266860,0.375353,0.473185,0.598186,0.701859,0.754105,0.756308,0.725969,0.603672,0.503157,0.389681,0.252200,0.105478,-0.011911,-0.038157,-0.049168,-0.080233,-0.047685,-0.077998,0.001606,0.016697,0.027698,0.005551,0.044954,0.004312,0.044420,0.041299,0.021849,0.033704,0.011673,0.016308,-0.007182,0.016931,0.043342,-0.009072,0.039401,0.013469,0.004418,0.060466,0.050866,0.025118,0.055791,0.069498,0.064447,0.030108,0.029304,0.055042,0.052137,0.057290,0.034313,0.066371,0.063062,0.062714,0.051903,0.003502,0.059435,0.099294,0.002566,0.077340,0.052620,0.072529,0.082746,0.104246,0.084214,0.101120,0.106707,0.132411,0.146879,0.105932,0.176605,0.134697,0.159388,0.190257,0.131640,0.172424,0.193926,0.182883,0.192091,0.232042,0.215464,0.235029,0.236842,0.235973,0.244461,0.272813,0.207331,0.230959,0.271345,0.234277,0.245047,0.233112,0.251900,0.266077,0.257721,0.254444,0.241549,0.221956,0.180932,0.220758,0.216227,0.239466,0.198878,0.197867,0.154983,0.212137,0.166359,0.147767,0.161190,0.142858,0.174744,0.139167,0.181506,0.128064,0.109355,0.117735,0.079586,0.151100,0.109931,0.069730,0.099296,0.076789,0.083854,0.083810,0.093409,0.032528,0.048712,0.071567,0.045886,0.027346,0.017535,0.022253,0.042882,0.015362,0.055144,0.015334,0.017931,0.000166,0.044688,0.028571,0.051435,0.019541,0.064382,-0.008153,0.004169,-0.014546,0.036954,0.036527,0.017715,0.031066,0.017094,0.014275,-0.016694,0.019764,-0.004175,-0.017508,0.010908,0.012173,0.019702,-0.030285,0.004910,-0.020184,-0.012511,-0.007007,0.027429,0.033006,-0.002883,-0.014635,-0.010396,0.012802,0.002131,0.005917,0.046377,-0.016155,0.018290,0.040183,0.040774,0.015562,-0.014311,0.002796,-0.005430,-0.008208,-0.032434,0.020831,-0.003229,-0.027092,-0.014799,0.000268,0.035769,-0.023403,0.022553,-0.001447,0.014825,-0.002008,-0.012989,-0.000313,-0.033358,-0.014484,-0.002976,0.047279,-0.008194,-0.001069,0.006673,-0.032646,-0.012108,0.011750,0.021330,-0.002889,-0.002593,0.003710,0.016191,0.022292,0.009065,0.018709,0.000404,0.007772,-0.037112,0.011854,0.028909,0.036610,0.018822,-0.006495,0.000624,0.000942,-0.020734,0.008178,0.008328,0.048972,0.006011,0.040941,0.038885,0.039805,0.029402,0.040968,0.054677,0.096995,0.028355,0.063739,0.073744,0.118585,0.072431,0.097329,0.102355,0.088093,0.102236,0.111812,0.128531,0.091102,0.106284,0.133483,0.085165,0.128752,0.133809,0.098451,0.106057,0.056210,0.051525,0.056037,0.063661,0.058947,0.073123,0.040363,0.065303,0.019427,0.049566,0.020855,0.024694,0.027618,-0.013713,0.002132,0.045110,0.048842,0.016860,-0.010616,0.002902,0.007218,0.001355,0.021973,0.023865,0.001476,0.007633,0.004373,0.000842,0.038660,0.035369,0.016176,0.060581,0.028311,0.016415,0.012660,-0.039253,0.021343,0.006191,0.013329,0.036283,0.031393,0.008383,0.058038,0.043558,-0.010411,0.001130,0.012943,-0.015488,-0.022821,-0.005141,0.010999,0.023860,-0.004027,-0.044383,-0.010456,-0.009444,0.046436,0.146584,0.260925,0.397209,0.510001,0.641467,0.707118,0.757255,0.781094,0.701472,0.640050,0.494855,0.359109,0.273205,0.116812,0.044559,-0.023340,-0.059533,-0.054938,-0.040718,-0.074206,-0.018125,0.037374,0.000542,0.021067,0.018782,-0.017747,0.008464,0.029285,0.014382,0.057562,0.024347,0.009290,0.008550,0.016845,0.041659,-0.001359,0.039511,0.009791,0.040771,0.081277,0.064157,0.014184,0.037977,0.055726,0.055937,0.029120,0.034002,0.021593,0.048915,0.055055,0.054310,0.080417,0.057496,0.036850,0.060343,-0.008192,0.066753,0.083988,0.058625,0.053278,0.074018,0.056626,0.100048,0.083015,0.067713,0.092607,0.128623,0.126222,0.156808,0.124190,0.170263,0.167305,0.151325,0.167763,0.144174,0.170461,0.188976,0.200159,0.204010,0.175950,0.209749,0.232901,0.206990,0.220890,0.263213,0.236628,0.227676,0.235286,0.287336,0.253769,0.247441,0.240021,0.283602,0.256460,0.235359,0.269944,0.234312,0.223877,0.191646,0.224252,0.203646,0.215815,0.206423,0.210909,0.184842,0.242767,0.149027,0.159623,0.153374,0.138813,0.182640,0.156395,0.171368,0.096309,0.109221,0.137460,0.098158,0.128774,0.138253,0.056649,0.109654,0.067314,0.064061,0.071705,0.073081,0.052153,0.064266,0.041426,0.046814,0.046229,0.049102,0.050061,0.047155,0.037138,0.012165,0.014286,0.036642,0.021541,0.012325,0.057485,0.032221,0.058359,0.072147,-0.015420,0.015413,0.002198,0.024819,0.031261,-0.029580,-0.021689,-0.001682,-0.002713,-0.002105,0.030101,-0.007096,-0.000051,0.018622,-0.009414,0.011306,-0.009946,0.017342,-0.008227,0.006275,0.024821,0.035454,0.009038,-0.008125,0.002711,-0.005481,0.013627,-0.019566,-0.006066,-0.010204,-0.000930,0.015856,0.038829,0.040562,0.026856,0.015539,0.001504,0.016023,-0.003686,-0.024789,-0.006842,0.017610,-0.024121,-0.029063,-0.000110,-0.002122,-0.020368,0.005467,0.023328,-0.043613,-0.030919,-0.003735,0.005926,0.000436,0.016539,0.012150,0.033907,-0.040632,-0.018737,-0.005916,-0.024421,-0.011160,0.033133,-0.012965,-0.028284,0.018324,0.031131,-0.001803,-0.024867,0.000951,-0.004428,0.014031,-0.037009,-0.015671,-0.005385,0.021908,0.047207,-0.033581,0.023497,0.001924,-0.000210,0.023838,0.019409,0.045300,0.013129,0.050957,0.042789,0.043640,0.068727,0.042022,0.062656,0.061545,0.052923,0.083819,0.092378,0.117131,0.103283,0.094830,0.082902,0.104903,0.075259,0.128073,0.095147,0.091983,0.128253,0.143023,0.114154,0.115346,0.150110,0.123166,0.079254,0.069405,0.080991,0.071173,0.060205,0.080256,0.055479,0.020698,0.044336,0.046594,0.053010,0.015129,0.027395,0.045484,-0.012388,0.017595,0.017624,0.066036,0.029535,0.004864,0.023376,0.001140,-0.002238,0.037309,0.033006,0.032757,0.021471,0.026053,-0.021302,0.025604,0.035859,0.016663,0.034971,0.042281,-0.015620,-0.000959,-0.010512,0.017401,0.014542,0.046934,0.055419,0.004643,0.009295,0.047428,0.045740,0.015362,-0.008754,0.023717,-0.007265,-0.019155,0.001546,0.007947,0.010642,-0.043198,-0.062105,-0.004536,0.015387,0.036019,0.132266,0.271865,0.356831,0.502786,0.617721,0.714390,0.735720,0.759282,0.700108,0.654083,0.488367,0.392713,0.241123,0.107382,0.008382,-0.013621,-0.051291,-0.078306,-0.103513,-0.064667,-0.025371,0.041501,0.028809,-0.000314,0.021569,-0.020277,0.048540,-0.009672,0.030960,0.065822,0.019858,0.024033,0.008332,0.040761,0.040655,0.007808,0.040650,0.023657,0.029449,0.010603,0.058885,0.000725,0.080057,0.041957,0.076307,0.049785,0.023919,0.038900,0.025223,0.052934,0.049846,0.092022,0.085381,0.056371,0.064155,0.024110,0.048229,0.066076,0.021944,0.056815,0.077952,0.079295,0.102502,0.095783,0.067205,0.117951,0.096331,0.155440,0.132121,0.115683,0.161231,0.175880,0.188541,0.196826,0.154438,0.165148,0.209722,0.193249,0.201594,0.187574,0.223591,0.224713,0.180215,0.220266,0.219524,0.237931,0.247734,0.212449,0.246787,0.233516,0.281347,0.253298,0.281170,0.256552,0.235690,0.243339,0.238188,0.239016,0.206169,0.216474,0.225990,0.190454,0.202742,0.228929,0.169062,0.233176,0.200889,0.184692,0.142333,0.153983,0.173254,0.120474,0.173358,0.102561,0.125713,0.119421,0.086595,0.128971,0.120731,0.059368,0.092091,0.086271,0.078586,0.067057,0.061489,0.053971,0.052435,0.049578,0.035800,0.036458,0.040510,0.052119,0.020823,0.034184,0.046856,0.010460,0.033568,0.015333,-0.004261,0.047731,0.040701,0.043640,0.047903,-0.023331,0.012703,-0.000179,0.007101,0.017636,-0.000770,0.029742,0.007965,0.001301,-0.017142,0.009744,0.000752,-0.023272,0.004321,-0.000414,0.005739,-0.018337,0.006942,0.012188,-0.004332,-0.008013,0.035038,0.018584,0.015325,0.013319,-0.008925,0.008284,0.005396,0.003649,-0.003091,-0.002284,0.034525,0.025625,0.044545,0.016108,-0.010330,0.006298,-0.017312,-0.009276,-0.024501,0.020290,-0.010955,-0.024610,-0.027844,-0.032178,-0.008143,-0.019870,0.033363,0.007375,-0.027573,-0.028375,-0.009482,-0.005936,0.014969,-0.019525,-0.022174,0.039601,-0.002994,-0.011360,0.020825,-0.011213,-0.016056,0.014869,-0.007253,0.022189,-0.002163,-0.039050,-0.006780,0.021036,-0.010872,-0.011644,-0.005768,-0.000295,0.022526,-0.041737,-0.004152,0.027364,0.002259,0.032962,-0.013430,-0.000366,0.008935,0.010366,0.022249,-0.002489,0.024409,0.005227,0.034500,0.035711,0.016662,0.063712,0.042471,0.059433,0.085135,0.046875,0.123647,0.081355,0.113034,0.065300,0.085724,0.118606,0.099483,0.069579,0.092809,0.131497,0.128738,0.117135,0.140909,0.110212,0.111501,0.148071,0.114783,0.095619,0.070719,0.024180,0.064026,0.058087,0.085948,0.053727,0.062382,0.042473,0.044772,0.029479,0.011021,0.025867,0.078061,-0.028918,-0.021174,0.025425,0.027738,0.007502,0.006123,0.043569,0.025053,0.005417,0.028074,0.028594,0.023523,-0.004749,0.028295,-0.017899,0.048846,0.082457,-0.025366,0.001272,0.000626,0.014527,0.010100,-0.019864,0.037274,0.056350,0.032345,0.051195,0.002558,-0.029622,0.047600,0.013957,0.048723,0.008748,-0.006403,0.004349,-0.035574,-0.001318,0.020235,-0.000337,-0.020756,-0.044334,-0.037228,0.005039,0.050732,0.150254,0.242121,0.383002,0.494016,0.593894,0.721402,0.749752,0.783545,0.711882,0.639646,0.484917,0.359598,0.266219,0.094898,0.015173,-0.039297,-0.052373,-0.075570,-0.052761,-0.047388,-0.021283,0.056327,0.022661,-0.015207,0.008765,-0.001053,0.050511,0.005095,0.004090,0.024292,-0.019479,0.016360,0.007317,0.008115,0.055620,-0.017531,0.057859,0.009561,0.039075,0.063833,0.036908,0.018790,0.088675,0.066767,0.052781,0.008507,0.022897,0.046447,0.049150,0.050223,0.040877,0.074316,0.044213,0.072385,0.071626,0.012048,0.045798,0.091742,0.020823,0.081030,0.074476,0.083155,0.100443,0.123462,0.102333,0.117544,0.077931,0.144718,0.121615,0.137548,0.181849,0.177594,0.182486,0.158061,0.169763,0.175773,0.175393,0.177645,0.195782,0.203670,0.212343,0.217124,0.199485,0.231002,0.219984,0.240660,0.204293,0.223274,0.257867,0.218770,0.265620,0.216040,0.245592,0.280183,0.244343,0.252065,0.246054,0.218831,0.198865,0.222416,0.242727,0.195951,0.206770,0.202037,0.183884,0.241950,0.174201,0.164981,0.171669,0.157986,0.173113,0.145901,0.159827,0.129673,0.122674,0.145712,0.104802,0.146183,0.119258,0.065865,0.110309,0.100881,0.065741,0.082613,0.067015,0.078970,0.055191,0.034490,0.042330,0.049431,0.023666,0.019435,0.041161,0.012713,0.008967,0.010978,0.019775,0.006588,0.015569,0.080982,0.070354,0.020513,0.045124,-0.024633,0.000015,0.019248,0.014635,0.035329,0.030981,0.015510,-0.000449,0.007140,0.016159,0.026888,-0.005962,-0.001876,0.022874,0.021317,-0.015445,-0.044299,0.008488,-0.006636,0.001348,0.003161,0.013584,-0.018930,0.034426,0.016740,0.010650,0.018965,-0.030297,0.007546,-0.007255,-0.033246,0.000060,0.036109,0.061277,0.033542,0.030966,0.009840,0.016891,-0.005329,-0.009099,0.006972,0.026980,0.001544,-0.006786,0.027567,-0.006849,0.010621,0.022728,-0.013900,-0.028224,-0.010613,0.025948,-0.001265,0.000385,0.010689,-0.004041,0.062477,0.001215,0.010749,-0.013935,-0.032401,0.005393,0.028061,0.011373,0.005703,0.005101,0.020861,0.031992,-0.012768,-0.005727,0.025054,0.006342,-0.020032,-0.010211,0.032922,0.050373,0.020549,-0.018721,0.005385,-0.010785,0.011686,-0.009495,0.009064,0.026236,0.019354,0.016782,0.069966,0.044751,0.024869,0.044678,0.054327,0.051837,0.028396,0.124853,0.072770,0.102782,0.073185,0.080560,0.102599,0.089332,0.081309,0.094412,0.123646,0.111160,0.115588,0.122224,0.114620,0.135870,0.126793,0.094185,0.090397,0.104048,0.058658,0.036111,0.038378,0.055700,0.078879,0.060745,0.037157,0.026141,0.038740,0.028320,0.053123,0.034846,-0.002536,0.007311,0.047380,0.019466,0.012392,-0.010870,0.016819,0.023777,0.002179,0.023103,0.040369,0.017881,0.009520,0.011560,-0.022598,0.048715,0.022171,0.027537,0.027012,0.013415,0.034929,0.006182,-0.021188,0.038825,0.039281,0.032559,0.055496,0.038597,-0.010817,0.047316,0.004829,0.003987,0.016485,0.035798,0.006594,0.024790,0.010734,0.033046,-0.006935,-0.032226,-0.039867,-0.031249,-0.026386,0.026978,0.147542,0.281368,0.396922,0.499154,0.628950,0.730440,0.768093,0.763547,0.718876,0.620237,0.491504,0.351029,0.249499,0.126911,0.017529,-0.025018,-0.087780,-0.085596,-0.062465,-0.057905,-0.016452,0.041034,0.007273,0.006708,0.017205,0.002311,0.020792,0.012594,0.029300,0.022669,0.023719,0.030475,-0.008406,0.017316,0.048636,-0.018657,0.035239,0.006872,0.028441,0.051609,0.053702,0.014624,0.061505,0.055934,0.041523,0.009367,0.043187,0.017974,0.039165,0.062576,0.059488,0.059443,0.053465,0.069366,0.054812,-0.000611,0.060087,0.098830,0.006991,0.060013,0.045603,0.104637,0.117745,0.083432,0.049801,0.094036,0.116658,0.138589,0.144823,0.144654,0.156351,0.167699,0.160019,0.174333,0.176470,0.181846,0.223746,0.188467,0.211020,0.197061,0.209709,0.223127,0.189968,0.250880,0.234162,0.251741,0.236020,0.235504,0.273004,0.250883,0.254897,0.230633,0.275455,0.250843,0.229683,0.236103,0.236520,0.253128,0.220936,0.232704,0.215508,0.199866,0.180036,0.238844,0.181078,0.202887,0.202182,0.177175,0.173720,0.125235,0.153545,0.156108,0.155495,0.101604,0.090514,0.123374,0.092812,0.134906,0.122166,0.060652,0.086354,0.101668,0.063477,0.075272,0.085588,0.041616,0.046631,0.054817,0.034918,0.021234,0.037211,0.021989,0.038235,0.022797,0.034142,0.003183,0.012692,0.009926,0.010080,0.036406,0.032205,0.060052,0.033475,-0.013108,0.024005,0.020274,0.028583,0.018858,0.000787,-0.009743,0.021361,0.002675,0.018363,0.004189,0.012990,-0.010397,0.007116,0.002478,0.000327,-0.017201,0.011359,0.011276,-0.007070,0.017571,0.039131,-0.017755,0.006285,-0.005915,-0.014777,0.006381,-0.020314,0.005520,-0.012853,-0.032149,-0.007593,0.018829,0.032887,0.012749,-0.005582,0.014317,-0.020948,0.003542,-0.020367,-0.009069,0.028029,-0.022394,-0.020357,-0.004487,0.007509,0.004005,0.004850,0.004927,-0.014821,-0.012083,-0.001920,-0.006933,-0.003566,-0.025738,-0.014256,0.005715,-0.012109,-0.003815,0.004237,-0.010215,-0.023201,0.016118,-0.013088,0.028642,0.024901,0.040660,-0.009340,0.000213,-0.011382,-0.007777,0.018769,0.051661,-0.002752,-0.039860,-0.020539,-0.002130,0.012678,-0.009619,0.025136,0.002062,0.012744,-0.009671,0.001130,0.026297,0.054325,0.002752,0.004769,0.024226,-0.010929,-0.011959,-0.001798,0.014769,0.040293,0.016936,0.041887,0.037670,0.049471,0.047188,0.037921,0.047868,0.086433,0.064712,0.083871,0.086219,0.114834,0.035636,0.091976,0.052544,0.106341,0.099295,0.122288,0.113261,0.104863,0.110481,0.133552,0.117648,0.117616,0.142657,0.098286,0.104632,0.067667,0.028254,0.089134,0.064808,0.053289,0.091594,0.035528,0.034969,0.019969,0.054669,0.008233,0.016746,0.045487,0.000536,-0.007510,0.029565,0.013444,0.030588,-0.010219,-0.000488,0.021858,0.008451,0.014445,0.028585,0.013279,0.034563,-0.000419,0.000354,0.030819,0.053516,-0.002357,0.003375,0.022011,0.012370,0.011469,-0.001931,-0.004936,-0.001268,0.025825,0.052361,0.005992,-0.033279,0.047890,0.051041,0.042770,-0.012045,0.033718,0.000215,0.020353,0.028226,0.048190,0.005839,-0.038232,-0.049576,-0.026315,-0.031480,0.050350,0.163228,0.258297,0.372768,0.502516,0.620448,0.726739,0.740356,0.747322,0.734962,0.614429,0.494387,0.401412,0.263041,0.141877,-0.000713,-0.022700,-0.062346,-0.079986,-0.047923,-0.074918,-0.011039,0.062371,-0.000662,0.014863,0.018393,-0.024170,0.016548,0.008786,0.005567,0.021304,0.018838,0.043134,0.021290,0.020125,0.026334,0.021392,0.042732,0.034786,0.028196,0.045575,0.037186,0.003475,0.050918,0.061032,0.055543,0.003787,0.014029,0.054208,0.068748,0.085150,0.034967,0.068585,0.042611,0.032108,0.045141,0.033341,0.050267,0.082311,0.032714,0.065542,0.034218,0.070797,0.092657,0.087473,0.065104,0.104823,0.142848,0.121190,0.132759,0.114518,0.176706,0.154983,0.153167,0.169719,0.164012,0.186539,0.180155,0.210848,0.200810,0.188505,0.219815,0.216139,0.208757,0.201136,0.254396,0.254613,0.233482,0.229664,0.254080,0.235409,0.251061,0.259196,0.281686,0.280316,0.243520,0.251172,0.248171,0.236336,0.218462,0.226718,0.202664,0.180843,0.195966,0.205577,0.172235,0.228382,0.197250,0.140219,0.139212,0.169404,0.199709,0.134119,0.166372,0.124687,0.080548,0.139726,0.097489,0.146167,0.121451,0.088510,0.117300,0.082536,0.049137,0.056770,0.085497,0.058353,0.027741,0.049050,0.035493,0.051023,0.041666,0.050737,0.036748,0.029467,0.036251,0.025683,-0.003456,0.040279,0.023071,0.051457,0.026952,0.018699,0.041856,0.000966,0.027800,0.010302,0.016571,0.043878,-0.008308,-0.005031,0.026735,0.017866,-0.010338,-0.007371,-0.007200,-0.025318,0.014219,-0.021929,0.023191,-0.006208,0.028803,0.000900,-0.003684,0.033313,0.006924,0.008715,0.017540,0.011536,-0.010542,-0.003978,-0.033365,-0.005219,-0.003821,0.004789,0.011744,0.052108,0.049392,0.022745,0.009258,0.023073,-0.003968,-0.036949,0.012246,0.012800,-0.000665,-0.003679,-0.008671,0.005242,-0.011888,-0.014412,-0.012186,0.018702,-0.046136,-0.009144,0.001994,-0.016023,-0.010252,0.001358,-0.011950,0.057867,-0.009943,0.003978,0.008427,0.023518,-0.020005,-0.015188,0.015334,-0.008280,0.012535,0.003996,-0.055031,-0.034814,-0.030632,-0.001075,0.002481,0.006205,0.003894,-0.009323,-0.013191,0.002585,-0.020462,0.015479,0.034370,-0.009881,-0.026248,0.000245,0.015622,0.030766,0.027643,-0.011634,0.022967,-0.014950,0.017425,0.022995,0.012919,0.042712,-0.019619,0.013627,0.017165,0.043912,0.028407,0.024234,0.081547,0.081349,0.062909,0.094641,0.092240,0.119538,0.073039,0.102914,0.098402,0.089112,0.116964,0.107548,0.093125,0.108156,0.084299,0.141535,0.101920,0.126570,0.125406,0.058496,0.109981,0.061749,0.059677,0.104580,0.043128,0.065968,0.075571,0.062791,0.056619,0.007600,0.027787,-0.013512,0.042974,0.047547,0.007189,0.001845,0.015673,0.033325,-0.006160,0.004007,0.028866,0.031553,0.017592,0.013129,0.009339,0.018511,0.019739,0.024263,-0.011239,0.056774,0.044532,-0.016354,0.027124,-0.004012,0.019066,0.021698,-0.022493,0.027898,0.000298,0.002950,0.016778,0.023185,0.013937,0.027889,0.024194,0.018353,-0.001285,0.001601,0.003345,0.003133,-0.023088,0.012970,0.000051,-0.031500,-0.068180,-0.031059,-0.007034,0.081821,0.141705,0.269075,0.354543,0.509311,0.639683,0.690613,0.764708,0.756186,0.723922,0.637974,0.486059,0.386952,0.252633,0.120641,0.015757,-0.029491,-0.107776,-0.101448,-0.103747,-0.041567,-0.016821,0.058346,0.004808,0.013398,0.009365,0.001226,0.045564,0.021758,0.010544,0.043098,0.025850,0.029326,-0.027352,0.007725,0.050469,0.007613,0.061314,0.019015,0.017489,0.040824,0.045900,0.030339,0.089854,0.038214,0.032872,0.007521,0.026123,0.039414,0.022821,0.049809,0.015827,0.073337,0.037807,0.045715,0.048160,0.038559,0.058357,0.102451,-0.000856,0.080384,0.070793,0.098773,0.132976,0.088228,0.081220,0.112040,0.141692,0.143334,0.161874,0.128095,0.148852,0.153694,0.198682,0.169667,0.155644,0.162329,0.187464,0.164643,0.193599,0.182052,0.206967,0.207798,0.212874,0.231534,0.239533,0.251868,0.233978,0.233176,0.263242,0.216599,0.240219,0.274401,0.261891,0.240169,0.257245,0.245562,0.201936,0.263754,0.236256,0.216874,0.201614,0.213083,0.183828,0.244269,0.152816,0.203750,0.200623,0.162080,0.164274,0.146976,0.167194,0.127587,0.143691,0.129764,0.098117,0.115244,0.070081,0.119193,0.121427,0.076551,0.128320,0.054776,0.083205,0.067735,0.070168,0.064186,0.053367,0.036512,0.040829,0.015851,0.048178,0.063330,0.034648,0.006002,0.020735,0.021268,0.007247,0.021513,0.015542,0.045442,0.028798,0.052933,0.040918,-0.000058,0.022546,0.042089,0.004838,0.002215,-0.003408,0.009640,0.002952,0.001618,0.017095,0.016602,-0.003937,0.013369,0.004918,-0.001538,0.018928,-0.001706,0.004289,-0.006087,0.002830,0.001416,0.016573,-0.001772,0.030570,-0.013482,0.000403,0.032433,0.002746,-0.006369,-0.022345,-0.028423,0.001738,0.037622,0.061755,0.019171,0.000174,0.011170,0.002061,-0.006193,-0.007264,-0.004328,-0.012088,-0.022923,0.005916,-0.014267,-0.001554,-0.025871,0.025175,0.029187,-0.023017,-0.007373,0.006501,0.009030,0.002874,0.007685,-0.036522,-0.003028,-0.026219,0.015727,-0.011666,0.008255,-0.001281,-0.007265,0.009891,-0.021922,-0.005808,-0.004709,0.040710,0.008649,-0.016114,0.008781,0.017259,-0.033753,0.018836,0.037521,0.046438,-0.006416,0.033368,0.059945,0.034573,0.068890,0.047742,0.061543,0.077123,0.030015,0.066960,0.110559,0.111057,0.078649,0.099664,0.083895,0.114922,0.127506,0.107737,0.113960,0.096865,0.112037,0.131064,0.101767,0.116071,0.145776,0.077978,0.079725,0.059120,0.059779,0.064874,0.058916,0.074076,0.071530,0.033461,0.039068,0.001897,0.053701,-0.000321,0.021650,0.050275,-0.017692,-0.008614,0.021812,0.005218,0.004921,0.005885,0.048629,0.029405,0.002095,0.036780,0.034918,0.031892,0.027388,0.009887,-0.003931,0.038419,0.052974,0.007140,-0.002835,0.019524,0.003652,0.013794,-0.009470,0.036827,0.035412,0.004248,0.027836,0.037242,0.000021,0.028227,0.012812,0.006271,0.049585,0.046755,0.024907,0.007002,0.010237,0.020098,0.030109,-0.037339,-0.049971,-0.011509,-0.038490,0.052417,0.146359,0.267211,0.368205,0.464532,0.596176,0.700511,0.748334,0.772143,0.709771,0.631965,0.510432,0.415591,0.253566,0.136965,0.025459,-0.040025,-0.078912,-0.066740,-0.070680,-0.072853,-0.019525,0.061444,-0.002873,-0.016029,0.027294,0.019180,0.013948,0.039432,0.019769,0.018196,0.004226,0.003336,0.009232,-0.010739,0.024976,-0.002678,0.036282,-0.004881,0.029716,0.051637,0.053540,0.017154,0.090127,0.059395,0.051070,0.015704,0.027236,0.032443,0.057716,0.048725,0.037120,0.083202,0.046731,0.070576,0.036324,-0.004269,0.068641,0.066638,0.030605,0.070565,0.075843,0.097459,0.121042,0.095064,0.070613,0.112459,0.101946,0.134030,0.156935,0.109349,0.205094,0.166149,0.201892,0.157635,0.154839,0.197215,0.169721,0.178231,0.221459,0.182937,0.216199,0.205337,0.223538,0.208672,0.209383,0.277329,0.259743,0.232119,0.263351,0.219211,0.249091,0.253359,0.267751,0.251514,0.241340,0.256187,0.242056,0.241770,0.191893,0.218902,0.222992,0.172006,0.192147,0.217930,0.163884,0.208171,0.187460,0.167146,0.155479,0.169214,0.197958,0.135801,0.168728,0.151209,0.134790,0.132784,0.105718,0.132299,0.125286,0.096111,0.093805,0.067174,0.066799,0.087559,0.061573,0.056524,0.078113,0.042542,0.032261,-0.001369,0.054285,0.012692,0.023628,0.015521,0.011424,0.014644,0.019355,0.026071,-0.007776,0.033398,0.046529,0.029566,0.023842,0.003569,0.017610,0.004958,0.008279,0.032173,0.007997,-0.024238,-0.011372,-0.006449,0.012856,0.024096,-0.016615,0.020732,-0.031328,-0.014510,-0.018673,-0.018245,-0.000579,0.009115,-0.013609,0.013708,0.004544,0.018873,0.008922,0.011918,0.027859,0.015507,-0.009303,-0.027213,-0.006293,-0.025826,0.004789,0.053501,0.042563,0.011391,0.026495,-0.001767,0.007346,-0.001561,-0.023540,0.020733,-0.016147,-0.020006,-0.012126,0.010540,-0.028863,-0.027878,0.031214,0.013533,-0.031102,-0.027865,0.009031,-0.022953,0.018331,0.002977,0.021721,0.055499,-0.021683,0.023980,0.007977,-0.010750,-0.000146,0.025299,0.012459,-0.020879,0.006902,0.037174,0.038831,-0.011830,-0.023187,0.041590,-0.004839,0.006424,0.004944,0.016772,0.034680,0.039598,0.033492,0.033420,0.035238,0.057290,0.030975,0.074610,0.075300,0.056299,0.092004,0.085056,0.128218,0.041357,0.094808,0.130445,0.107025,0.070731,0.106171,0.121278,0.102486,0.121024,0.119560,0.127676,0.121057,0.119170,0.083370,0.104790,0.090345,0.042274,0.073346,0.071268,0.062102,0.061772,0.055869,0.056521,0.037567,0.041432,0.010455,0.031675,0.031528,-0.012363,0.006874,0.032921,0.022636,0.017388,-0.004038,0.060252,0.009338,0.031690,0.049000,0.029856,0.030052,0.017686,0.017933,0.005178,0.009922,0.051643,-0.008749,0.006776,0.022066,0.003689,0.037813,-0.006447,0.031216,0.018334,0.032207,0.027873,0.003432,0.003324,0.029227,0.000896,0.035509,0.005229,0.006417,0.005982,0.015404,-0.013596,0.019590,0.025359,0.011213,-0.065556,-0.023096,-0.015080,0.052118,0.155338,0.302198,0.352466,0.502892,0.605081,0.695902,0.768958,0.759408,0.739032,0.648750,0.475856,0.395381,0.255091,0.112203,0.023530,-0.039290,-0.120420,-0.064702,-0.045828,-0.047873,-0.008618,0.019868,0.001961,-0.009246,0.032452,-0.022931,0.037917,0.016797,-0.008760,0.038797,0.021967,-0.004912,0.008150,0.018608,0.010545,-0.010443,0.028984,-0.010818,0.025520,0.039115,0.026240,0.015264,0.069091,0.028829,0.057381,0.025565,0.014703,0.002177,0.040931,0.059156,0.034612,0.060187,0.053929,0.050852,0.054623,0.038736,0.032885,0.081499,-0.002453,0.047409,0.079564,0.078402,0.104712,0.104171,0.051807,0.115039,0.126260,0.118344,0.169543,0.158576,0.154333,0.131384,0.153963,0.162719,0.159386,0.180264,0.180197,0.213179,0.203013,0.189173,0.255553,0.251354,0.221409,0.211978,0.251554,0.278963,0.211825,0.219216,0.237316,0.205914,0.253743,0.242954,0.271625,0.227141,0.243244,0.254583,0.225840,0.228951,0.175767,0.219072,0.250067,0.224463,0.184917,0.222243,0.183126,0.225247,0.190805,0.170258,0.148400,0.134206,0.203060,0.161512,0.156879,0.082210,0.120485,0.154266,0.073057,0.125646,0.113877,0.061237,0.096349,0.111040,0.083608,0.072460,0.088180,0.066116,0.047522,0.067646,0.022638,0.031625,0.067975,0.039165,0.012572,-0.010466,0.048125,-0.000065,0.023212,0.012105,0.000941,0.048299,0.042818,0.037396,0.032098,0.004600,0.023585,0.037474,0.017653,-0.005013,-0.001350,-0.037820,-0.007692,-0.011936,-0.020178,0.020919,-0.008487,-0.011373,-0.005271,0.012661,0.005399,-0.008154,0.032011,0.026545,0.006027,0.028755,0.017065,0.011549,0.008575,0.010033,0.003922,0.017329,-0.037576,0.003690,-0.002671,-0.023131,0.000897,0.044568,0.056012,0.022211,0.041132,0.029574,-0.014851,-0.020116,-0.038815,0.031640,0.001500,-0.042362,-0.022046,-0.002062,-0.002487,-0.025694,0.035055,0.002587,-0.030814,0.007237,0.014001,-0.010151,0.014037,-0.025020,-0.008629,0.039257,-0.015077,-0.022746,-0.023891,-0.004979,-0.012835,0.045201,0.018794,-0.009677,-0.006668,0.028843,0.013097,-0.015942,0.038923,0.012529,0.007277,-0.013368,0.036916,0.000786,0.055572,0.022299,-0.000230,0.024738,0.025238,-0.002458,-0.006697,0.017424,0.042453,0.012093,0.053998,0.041303,0.032670,0.042275,0.064568,0.073547,0.071377,0.063836,0.082680,0.084752,0.124785,0.069981,0.111668,0.096528,0.089619,0.088745,0.137037,0.122550,0.092656,0.102062,0.143346,0.088415,0.124575,0.123912,0.117536,0.104309,0.048085,0.055601,0.073869,0.030860,0.047553,0.071358,0.040427,0.055536,0.014582,0.028333,0.017266,0.028485,0.037696,-0.039733,0.006506,0.020687,0.005367,0.042447,0.003756,0.042890,-0.012539,0.002588,0.042879,0.055068,0.036621,-0.000031,0.012634,-0.001626,0.022748,0.046833,0.000285,0.054623,0.038278,0.013956,0.027977,-0.014382,0.029302,0.008606,0.019070,0.037924,0.046882,-0.004572,0.058431,0.011039,0.019964,0.023594,-0.011808,-0.005676,-0.002263,-0.022344,0.041765,-0.008601,-0.058625,-0.047622,-0.045825,-0.016567,0.051319,0.156021,0.272463,0.397329,0.488055,0.577203,0.701340,0.747953,0.746963,0.709582,0.615588,0.502040,0.388403,0.246491,0.117299,0.023637,-0.033964,-0.055400,-0.095688,-0.053172,-0.061552,-0.041104,0.038296,0.017546,0.006296,0.023238,-0.024354,0.039960,0.016680,0.012873,0.054369,-0.000452,0.024132,0.019599,0.038267,0.048244,-0.012251,0.028669,0.018889,0.036357,0.024665,0.040243,0.002219,0.053874,0.049199,0.055557,0.028768,0.049749,0.007046,0.040454,0.071573,0.043323,0.085859,0.072072,0.041840,0.035482,0.043710,0.061263,0.067183,-0.006206,0.086441,0.054843,0.088452,0.097794,0.113910,0.065019,0.132603,0.096119,0.140755,0.158009,0.152129,0.176703,0.161162,0.180485,0.179561,0.161965,0.166060,0.189890,0.227301,0.198267,0.186021,0.205322,0.211097,0.195321,0.193931,0.245892,0.258135,0.214427,0.220069,0.265948,0.226218,0.236153,0.207328,0.282502,0.243161,0.251269,0.238509,0.229866,0.251102,0.202738,0.226276,0.232804,0.217521,0.184032,0.214509,0.159124,0.214065,0.162528,0.173982,0.163369,0.121335,0.146078,0.142086,0.153914,0.147036,0.106301,0.135024,0.094043,0.106990,0.096729,0.059833,0.103455,0.101203,0.061839,0.075574,0.084704,0.046196,0.057594,0.035702,0.062988,0.024348,0.034604,0.042014,0.060765,0.021734,0.017069,0.040055,0.019952,0.028102,0.020977,0.051220,0.045249,0.009683,0.035241,-0.001308,0.003235,0.021872,0.020301,0.039306,-0.015626,-0.000770,-0.023596,0.001378,0.019189,0.011729,-0.021989,0.008236,0.013932,0.010952,0.011541,-0.020895,-0.004039,0.000151,-0.003722,0.011804,0.000712,0.004093,0.018619,-0.010267,0.026451,0.021096,-0.001369,0.005906,0.003553,-0.023507,0.027592,0.060983,0.054034,0.038890,0.015758,0.010873,0.012994,-0.016605,-0.018636,-0.015122,0.003820,-0.033394,-0.030781,0.005966,0.005817,0.006663,0.027294,-0.031571,0.005886,-0.029580,0.000378,-0.005371,0.003569,-0.005567,-0.016650,0.028303,-0.026610,-0.044330,0.013919,0.013736,0.004771,0.021374,-0.005392,-0.015817,0.008546,0.016566,-0.001690,-0.036041,-0.005330,0.018157,-0.005848,0.002686,0.000609,0.023372,0.004436,-0.017436,0.004444,0.000647,0.016730,-0.037275,0.025854,-0.011563,0.040495,0.049543,0.003818,-0.004959,-0.026489,0.007808,0.019421,0.003333,0.058606,-0.005822,0.044139,0.050917,0.051504,0.068093,0.032608,0.054275,0.081755,0.028648,0.069879,0.086278,0.105784,0.071237,0.078875,0.111164,0.093967,0.096052,0.112494,0.106340,0.077262,0.106916,0.127639,0.105174,0.135309,0.128110,0.123537,0.092009,0.062476,0.038264,0.080468,0.067576,0.066787,0.064904,0.043806,0.035469,0.020683,0.026339,-0.009980,0.035758,0.044665,-0.022490,0.015684,0.020416,0.023659,0.027705,-0.013254,0.009029,0.045404,0.005900,0.039059,0.039118,0.030099,0.013153,0.013155,-0.022233,0.009478,0.038224,0.010244,0.024076,0.040015,0.007437,-0.005882,0.000638,0.045550,0.040967,0.005235,0.024024,0.036191,0.002580,0.063328,0.030418,-0.005531,0.013450,0.017756,0.004232,0.008335,-0.003927,0.036716,0.009324,-0.059015,-0.009124,-0.029491,-0.020738,0.032944,0.161648,0.286069,0.381309,0.489244,0.611792,0.733682,0.767541,0.769619,0.709218,0.611862,0.509182,0.380984,0.252941,0.120461,0.012798,-0.044003,-0.063193,-0.073479,-0.041041,-0.055444,-0.014678,0.017418,-0.007757,-0.003300,0.041988,0.008510,0.039677,0.037876,0.022810,0.038546,0.022070,0.031421,0.021767,0.024055,0.053986,-0.015408,0.060216,-0.008529,0.020791,0.055070,0.024088,-0.015193,0.069044,0.037003,0.067124,0.029127,0.043497,0.041105,0.051162,0.041030,0.041159,0.059603,0.072688,0.044507,0.039676,0.021624,0.049800,0.075570,0.017630,0.063281,0.051075,0.084653,0.095702,0.099581,0.066541,0.090657,0.108100,0.149352,0.126511,0.134415,0.159755,0.155922,0.196913,0.158257,0.154948,0.193688,0.183191,0.215521,0.176895,0.201724,0.232804,0.209054,0.202487,0.221549,0.241779,0.265763,0.218480,0.261835,0.300756,0.209546,0.276650,0.226471,0.265948,0.253660,0.253335,0.269341,0.224442,0.239323,0.204334,0.210838,0.230530,0.192729,0.182659,0.209852,0.154951,0.222923,0.180723,0.184661,0.136441,0.146200,0.164605,0.166236,0.169254,0.114337,0.109300,0.156048,0.087239,0.128340,0.103948,0.095873,0.105753,0.099093,0.072528,0.080716,0.110214,0.092601,0.073893,0.055268,0.016453,0.025355,0.041338,0.039242,0.039845,0.030556,0.015641,-0.036218,0.028423,0.030653,-0.005522,0.042142,0.006690,0.026280,0.024823,0.006063,0.015031,0.018293,0.018236,0.002787,-0.005972,0.019795,0.015986,-0.011050,0.000084,0.012994,-0.023978,0.013410,0.010450,-0.020531,0.007089,-0.016216,0.009775,0.003145,0.016987,0.046953,0.031265,0.018815,-0.000321,0.020613,0.009949,0.010779,-0.047261,-0.001791,0.009331,-0.030074,0.033316,0.033616,0.036717,0.034106,-0.008636,0.015981,-0.016402,0.011757,-0.033521,0.007180,0.009025,-0.034778,-0.033734,0.017226,0.002140,-0.006435,0.009218,-0.003302,-0.038051,-0.020107,-0.003321,-0.009628,0.017772,0.002516,-0.009604,0.063450,0.003622,-0.001500,-0.018036,-0.019012,0.018165,0.032014,0.009877,-0.047287,0.020349,-0.011834,-0.027508,-0.028369,0.000115,0.018267,0.008418,-0.035760,-0.020806,0.010222,0.021290,0.017726,-0.015150,0.035144,0.002724,0.010897,0.024180,0.016639,0.034682,0.008612,0.038960,0.021579,0.058902,0.058599,0.054893,0.049650,0.053692,0.070778,0.088361,0.081779,0.099778,0.089076,0.110560,0.110498,0.119096,0.084781,0.145042,0.098643,0.093110,0.099699,0.167898,0.102382,0.117506,0.167082,0.115150,0.101768,0.043231,0.040583,0.071101,0.076403,0.080216,0.049058,0.056626,0.073575,0.033681,0.012347,0.036380,0.045512,0.041505,-0.003219,0.034068,0.009202,0.030642,0.017159,0.013338,0.045348,0.022678,0.001428,0.057685,0.006878,0.014926,0.033350,0.014750,0.009332,0.030765,0.056637,0.006154,0.004328,-0.001281,0.026648,0.040146,0.000674,0.027104,0.027524,0.028069,0.046081,0.003504,0.008982,0.051786,0.018586,0.023126,-0.009036,0.015927,0.013579,0.010289,0.016183,0.034985,-0.007476,-0.006266,-0.021904,-0.033169,-0.037616,0.036729,0.153226,0.267098,0.359868,0.503768,0.624413,0.694267,0.732001,0.758405,0.727374,0.615230,0.509552,0.402565,0.247095,0.094094,0.003131,-0.038947,-0.077615,-0.085476,-0.067031,-0.070716,-0.023817,0.077343,-0.000319,0.005307,0.031715,-0.031391,0.053194,0.016790,0.020326,0.067935,-0.000044,0.008709,0.016716,0.013730,0.063474,0.026991,0.083953,0.030231,0.051590,0.048333,0.046727,0.015191,0.078587,0.069460,0.065874,0.042256,0.043889,0.024211,0.031799,0.051361,0.057447,0.074289,0.049116,0.070706,0.073613,-0.001844,0.045806,0.099011,0.015809,0.065055,0.065973,0.066980,0.059718,0.082075,0.088529,0.114775,0.102344,0.120035,0.171994,0.136829,0.166920,0.162430,0.142331,0.166363,0.147072,0.189434,0.178892,0.210780,0.203761,0.182459,0.172797,0.200108,0.208108,0.228664,0.234932,0.248261,0.229914,0.226776,0.238787,0.216687,0.235841,0.241200,0.249941,0.256325,0.225274,0.257448,0.229279,0.225327,0.218050,0.218577,0.240195,0.209961,0.193986,0.215262,0.174684,0.199023,0.175958,0.174869,0.150528,0.156359,0.160578,0.141005,0.183531,0.130241,0.090230,0.165688,0.087800,0.115783,0.123251,0.049482,0.084078,0.090394,0.063143,0.099773,0.090414,0.058657,0.074289,0.036933,0.044054,-0.001033,0.011138,0.016979,0.011514,0.047528,0.040450,-0.028533,0.022255,0.030228,0.007481,0.053463,0.029172,0.082083,0.026622,0.009206,0.013197,0.012457,0.021029,0.013703,0.008582,0.000802,0.011133,-0.027309,-0.011120,0.021375,-0.030092,0.003307,0.006966,0.007355,0.011784,-0.016765,0.017197,-0.006559,0.002252,-0.011245,0.027329,0.002629,0.004014,-0.005416,-0.032668,0.024940,-0.002520,-0.002915,-0.011018,-0.028050,0.028784,0.048141,0.026817,-0.022944,0.031023,-0.001811,0.017554,-0.015833,-0.034669,0.023551,-0.006675,-0.005963,-0.024307,-0.012434,0.007802,-0.014136,0.003405,0.003775,-0.033310,-0.024139,-0.009406,0.025327,0.005245,-0.020768,-0.009842,0.014223,-0.034435,-0.031762,-0.023084,-0.036876,-0.012208,0.000036,0.002708,0.006043,0.028174,0.008614,0.026315,0.015305,-0.016728,0.011832,-0.008407,0.010535,0.016206,0.013627,0.013247,0.031543,-0.005341,-0.029522,-0.027669,0.012719,0.002672,0.004421,-0.016953,-0.027291,-0.014142,0.042727,0.003481,-0.026845,0.034518,0.001720,-0.022031,0.015335,0.011078,0.052411,0.029587,0.029662,-0.001611,0.026842,0.070442,0.057268,0.060899,0.051928,0.063089,0.084679,0.082916,0.121519,0.049150,0.081387,0.084578,0.112116,0.094108,0.118828,0.100288,0.111603,0.111105,0.100875,0.109552,0.138875,0.130532,0.080303,0.077644,0.083858,0.041665,0.074735,0.042514,0.078387,0.077734,0.042824,0.052687,0.012359,0.042111,-0.002504,0.034551,0.008366,0.016820,-0.019130,0.025703,0.025713,0.011198,0.019081,0.039338,0.024306,0.034978,0.017707,0.047410,0.006782,0.019577,0.011245,-0.009675,0.026967,0.041206,0.032163,0.010159,0.008469,0.011238,0.023795,0.005659,-0.010381,0.041693,0.005367,0.067173,0.003067,0.016225,0.050022,0.065252,0.008007,0.006317,0.002440,-0.004446,0.006428,-0.016228,0.022685,0.002620,-0.025101,-0.057427,-0.059716,0.006211,0.059186,0.133946,0.264948,0.411668,0.498366,0.607889,0.691228,0.720641,0.760761,0.730235,0.621259,0.491459,0.403052,0.241260,0.112959,0.008328,-0.029465,-0.072257,-0.066755,-0.062650,-0.054509,-0.015149,0.043207,0.008225,0.001576,0.036839,0.020579,0.029596,0.039304,0.020870,0.038016,-0.018657,0.035316,0.015360,0.012087,0.013732,-0.008159,0.034940,-0.007754,0.049510,0.034738,0.051404,0.021155,0.066063,0.041022,0.065337,0.019872,0.031566,0.035590,0.024715,0.068180,0.048185,0.096323,0.057358,0.037192,0.031933,0.020589,0.062337,0.071222,0.018387,0.043393,0.078770,0.084074,0.094062,0.095956,0.062249,0.112097,0.143039,0.157874,0.170123,0.109284,0.154277,0.185859,0.182901,0.178910,0.183141,0.172251,0.187880,0.212429,0.202921,0.176859,0.223868,0.219647,0.193938,0.251051,0.229846,0.233275,0.274021,0.208837,0.259326,0.215889,0.250004,0.268557,0.287083,0.252882,0.210204,0.274544,0.205799,0.244825,0.209025,0.238815,0.241367,0.227089,0.176173,0.201192,0.151095,0.195105,0.186817,0.158469,0.156783,0.148021,0.144531,0.131236,0.179922,0.123877,0.086248,0.118943,0.098979,0.107434,0.100798,0.054145,0.104061,0.098341,0.074284,0.054614,0.101242,0.052329,0.058526,0.050793,0.044164,0.030008,0.036613,0.058529,0.035020,0.019793,0.007668,0.003577,0.024568,0.020355,-0.002742,0.041190,0.009267,0.046428,0.047967,-0.022830,0.002837,0.052286,0.016461,0.009173,-0.003950,0.007818,-0.004674,0.021891,0.008380,0.004283,-0.000237,0.008171,0.003051,-0.008018,0.033699,-0.020733,-0.008849,0.010272,-0.007756,0.009540,0.018403,-0.015477,0.033724,-0.015927,0.042534,0.020927,-0.020412,0.004121,-0.014425,-0.042311,0.009287,0.034044,0.071707,0.032263,-0.009901,0.035097,0.009186,-0.012257,0.002427,0.023641,0.011423,0.001352,-0.029668,0.012420,-0.021431,-0.023724,-0.005342,-0.015266,-0.019915,-0.026215,-0.003881,-0.023981,-0.006740,-0.019474,-0.009772,0.054987,-0.025042,-0.002884,-0.007633,0.009012,-0.016310,-0.008694,-0.013206,0.011298,-0.015273,0.012287,0.020248,0.015510,0.013330,-0.003201,-0.005247,-0.012803,0.035997,0.005655,0.000024,-0.012281,-0.008641,0.038795,-0.011940,-0.029220,-0.006544,-0.003505,0.027611,-0.033133,0.006356,0.023388,0.057430,0.019715,0.015135,0.007776,0.025283,0.021406,0.015584,0.012699,0.043803,0.014068,0.038554,0.047171,0.047897,0.057604,0.046833,0.058943,0.081182,0.029056,0.083621,0.079736,0.104138,0.081516,0.080343,0.109205,0.085529,0.109608,0.127572,0.127069,0.110450,0.105449,0.137561,0.126454,0.136379,0.144209,0.084537,0.116579,0.077401,0.041209,0.079465,0.051727,0.076256,0.047020,0.034823,0.030269,0.049042,0.034540,-0.018969,0.051467,0.051276,-0.020052,0.020338,0.016633,0.007020,0.030511,0.014867,0.024845,0.007412,0.042807,0.034450,0.022679,0.018674,0.024712,0.025252,-0.003529,0.033726,0.043807,-0.026144,0.016566,0.012257,0.017607,0.035369,-0.005799,-0.003909,0.019193,0.043144,0.039966,0.041364,0.005258,0.011652,0.031563,0.014210,0.010101,0.014358,0.010945,0.016558,-0.011372,0.026696,0.017161,-0.049063,-0.027635,-0.022388,-0.006490,0.069423,0.128159,0.272291,0.359009,0.517959,0.624810,0.721992,0.758382,0.767327,0.715270,0.661172,0.488045,0.397382,0.237100,0.113971,0.027344,-0.016620,-0.071961,-0.085786,-0.070310,-0.067314,-0.014820,0.054900,0.003217,0.017480,0.034678,-0.048313,0.019547,0.032152,0.008397,0.049215,-0.010187,0.001759,-0.006374,0.040581,0.028080,0.040627,0.041229,0.019798,0.009206,0.064833,0.050795,0.022668,0.049042,0.055825,0.075369,0.013408,0.024917,0.013012,0.033858,0.042534,0.037217,0.072683,0.084005,0.047096,0.050078,0.032459,0.083005,0.063747,0.041716,0.083380,0.047138,0.076951,0.085562,0.101320,0.075338,0.094297,0.145213,0.123701,0.152977,0.097428,0.159286,0.160910,0.176197,0.167615,0.180649,0.189362,0.184799,0.202656,0.206949,0.180494,0.214377,0.239069,0.236096,0.216491,0.255390,0.249231,0.230304,0.234443,0.277683,0.211775,0.234002,0.262592,0.269927,0.261244,0.255188,0.247227,0.240599,0.239451,0.210165,0.213521,0.217419,0.244352,0.169041,0.215233,0.179957,0.184038,0.190467,0.153591,0.176044,0.117290,0.178761,0.129256,0.171858,0.147251,0.126499,0.119474,0.117144,0.120460,0.110548,0.077649,0.092600,0.096405,0.072689,0.060418,0.096432,0.062547,0.052414,0.090309,0.036735,0.045244,0.037793,0.028051,0.031045,0.025854,0.003521,0.037006,0.016379,0.021039,0.032244,0.042799,0.029404,0.046395,0.057262,0.008046,0.041282,0.011615,0.014379,0.022985,0.005707,0.021723,-0.019688,0.005216,-0.014420,-0.004043,-0.016057,-0.034534,0.000179,-0.005616,-0.001951,-0.032011,-0.012615,0.009998,0.005803,0.024567,0.015987,0.027161,0.031142,-0.003047,0.008517,0.005162,-0.004844,0.010000,-0.007821,-0.036223,0.022188,0.028593,0.046065,0.031517,0.023805,0.019181,0.024400,-0.011083,-0.020031,0.027465,0.031703,-0.020535,0.012868,-0.001535,-0.012755,-0.000661,0.015741,0.013680,-0.025451,-0.005691,0.003984,0.025980,-0.005762,-0.006264,0.038299,0.036325,-0.053333,-0.004604,0.009655,0.002200,-0.007598,-0.010080,0.012131,-0.004474,-0.047141,-0.012782,0.030261,0.030578,0.010599,0.018845,0.039635,0.022238,0.018042,0.003245,0.018080,0.039775,0.008561,0.035241,0.023986,0.052051,0.057050,0.051980,0.067541,0.057133,0.052115,0.095307,0.075538,0.119863,0.081926,0.069635,0.083063,0.070603,0.072930,0.113439,0.101791,0.100277,0.088382,0.121573,0.093045,0.126560,0.149850,0.069910,0.122001,0.046456,0.066060,0.058050,0.091744,0.070628,0.035087,0.021195,0.011385,0.004753,0.033889,0.032726,0.028866,0.009470,-0.002892,-0.032165,0.021002,0.025411,0.019791,-0.007566,0.037049,0.039500,-0.001028,0.041719,0.050284,-0.001470,0.021597,0.015108,0.007241,0.040408,0.046343,-0.030304,0.023667,0.024838,0.022004,0.033877,-0.014283,0.031496,0.002105,0.008071,0.035385,0.035139,0.005973,0.038085,0.017877,0.025906,0.039700,0.028639,-0.013315,0.029619,0.025353,0.031855,0.000078,-0.040711,-0.071137,-0.026317,-0.008696,0.058400,0.156218,0.290562,0.349785,0.490237,0.608138,0.689963,0.758117,0.799994,0.736109,0.598717,0.538535,0.389322,0.271064,0.086857,0.010696,-0.011323,-0.058220,-0.085474,-0.053338,-0.073951,-0.049379,0.052184,-0.010267,-0.008593,0.048573,-0.018094,0.013733,0.029406,0.018224,0.036121,0.011838,0.031701,0.011977,0.022663,0.062818,-0.001212,0.045930,0.012460,0.062267,0.055721,0.034130,-0.007277,0.060463,0.066519,0.067730,0.004025,0.029646,0.003671,0.053115,0.066246,0.019944,0.060845,0.074529,0.076550,0.053157,0.033192,0.043616,0.082985,0.013964,0.058418,0.076139,0.101003,0.074507,0.104150,0.065889,0.080828,0.097663,0.138474,0.123003,0.130283,0.191022,0.159692,0.169591,0.184106,0.166357,0.195818,0.183867,0.166065,0.199933,0.188275,0.205746,0.230142,0.190566,0.222084,0.242390,0.261000,0.234385,0.203044,0.242712,0.227150,0.219924,0.266666,0.255033,0.256543,0.225820,0.270789,0.212744,0.228119,0.194280,0.228507,0.206026,0.197923,0.170586,0.210559,0.173944,0.190688,0.163781,0.175159,0.158626,0.156527,0.194951,0.161408,0.154792,0.116425,0.123896,0.117652,0.099144,0.144948,0.127575,0.081537,0.091174,0.098629,0.089047,0.070726,0.101111,0.085215,0.079267,0.058292,0.062867,0.033995,0.044916,0.019518,0.022089,0.001230,0.011500,0.005708,0.027120,0.041726,0.039621,0.059126,0.060451,0.031415,0.039353,0.015191,-0.003919,0.022741,0.001209,0.018303,0.008688,0.000012,0.001276,-0.009532,0.016525,0.020932,-0.006248,0.005124,-0.001540,-0.000973,0.020787,-0.020995,0.000615,0.021746,0.002957,0.028003,0.018273,-0.005473,0.028994,0.010016,0.013012,0.009393,-0.016414,0.002523,-0.004742,-0.002638,0.014574,0.048651,0.046945,0.010216,0.009492,-0.000109,0.020908,-0.016762,-0.018951,0.002888,0.021207,-0.040026,-0.019288,0.004498,-0.002463,-0.012260,0.001368,0.001003,-0.013954,-0.018486,0.024623,-0.002330,-0.010157,-0.000859,-0.003048,0.030125,-0.018032,-0.001996,-0.015010,-0.006319,0.006442,-0.011695,0.021005,-0.004666,0.009063,-0.002931,-0.023552,0.016065,0.007238,0.016466,-0.031182,-0.006818,0.011203,0.011202,0.011530,-0.012674,-0.024946,0.018298,0.030528,-0.013995,0.017695,0.006010,0.007708,-0.009902,0.000492,-0.002234,0.018597,0.013698,-0.017828,0.022897,0.002511,-0.019668,-0.010377,0.005508,-0.010494,-0.005614,0.021909,-0.028559,0.018671,-0.000765,-0.028079,0.010409,-0.018743,-0.018897,0.002128,-0.004205,-0.016334,0.005138,-0.040301,0.014029,0.002070,-0.018717,0.022200,-0.008505,0.006952,0.010999,0.010119,-0.015650,0.009030,0.004011,-0.031098,0.009054,-0.002706,0.013059,0.026279,-0.002921,-0.009585,-0.023561,-0.001254,0.002497,0.012070,0.012590,0.002293,-0.006065,0.025297,0.010352,-0.012549,0.018050,-0.020361,0.000409,0.002018,0.027947,-0.011617,0.005881,-0.006893,0.004361,0.005328,-0.010097,-0.018181,0.018114,0.026401,0.007659,-0.026334,0.004553,-0.004500,0.017321,-0.001654,0.008190,0.018443,0.001891,-0.023964,0.000966,0.002221,0.016594,0.003654,0.026128,-0.012637,-0.022577,-0.010885,0.029987,-0.020696,-0.009099,0.006208,-0.007867,-0.004263,-0.002699,-0.026809,0.003340,0.019036,0.009041,0.001265,-0.008742,0.000814,0.001966,-0.009535,0.022505,-0.038328,-0.003177,-0.024984,-0.003515,-0.000374,0.025317,-0.007083,0.001288,-0.005102,0.013250,-0.003381,0.008830,0.013444,0.001500,0.018917,0.025205,0.017975,0.003897,0.004725,0.019149,-0.004627,-0.000884,-0.005168,-0.000773,0.005444,0.011944,-0.006350,-0.012770,0.013462,-0.009973,0.006849,-0.036843,0.015690,0.017800,0.001654,0.009159,0.009579,-0.012340,0.017035,0.019122,0.021599,-0.010732,-0.000661,-0.020013,0.016187,0.028458,0.001312,0.000938,-0.018412,-0.013687,-0.009630,0.018148,0.006160,0.006927,0.012985,-0.019270,0.003564,0.018251,0.021281,-0.020655,0.021371,-0.007409,0.023884,-0.015915,-0.044852,0.026715,-0.010425,0.008532,-0.013658,-0.002095,0.014686,0.020513,0.007966,-0.004448,0.008930,0.002901,-0.004551,-0.015732,0.003681,0.004016,-0.011800,0.013585,-0.012184,-0.008223,0.015524,0.012004,-0.002951,-0.021305,-0.013406,-0.013021,0.020485,-0.000513,-0.010663,0.029530,-0.017520,0.011509,0.011673,-0.002773,-0.018231,-0.009229,0.007549,-0.000331,0.004039,-0.003937,0.025374,0.004296,0.009555,-0.007563,0.007219,-0.007513,-0.002166,-0.013383,0.001742,0.001420,0.005886,-0.005949,-0.018255,0.006027,0.006647,0.016211,0.000814,0.023802,-0.000979,0.003264,-0.001330,-0.017518
II,0.018230,-0.005762,-0.004355,-0.011479,0.019019,-0.010327,-0.001771,-0.001586,0.007517,-0.009195,-0.003289,0.011030,0.014091,-0.014278,0.019191,0.021986,-0.000924,-0.026382,0.005100,-0.008599,0.000353,-0.014523,0.018216,0.002702,-0.027545,-0.007723,0.007336,0.010616,0.019664,-0.002932,0.021379,0.001060,0.000330,0.006770,-0.017828,0.018822,0.007938,-0.010044,-0.007608,-0.016572,0.009554,-0.002108,-0.000697,0.000277,-0.020559,-0.003489,-0.005254,0.000271,0.040911,0.019069,-0.015102,-0.022975,-0.010134,0.013047,0.054463,0.003186,-0.022630,-0.022171,0.045537,0.014595,-0.016746,-0.018533,0.018343,0.045151,-0.018026,-0.020426,0.010394,0.052503,0.069825,-0.014402,0.034304,-0.022962,0.037833,-0.006206,0.051430,0.079610,-0.001537,0.057276,0.034025,0.059802,0.052071,0.059800,0.066322,0.106732,0.083140,0.125452,0.120511,0.167977,0.097551,0.171288,0.131521,0.122615,0.130871,0.178165,0.140634,0.139022,0.150589,0.169472,0.153428,0.186006,0.205475,0.144568,0.151878,0.090329,0.078129,0.083048,0.052793,0.133158,0.084562,0.084733,0.073868,0.053477,0.040144,0.008892,0.030006,0.024221,-0.019599,0.029588,0.078719,0.037914,0.019711,-0.013715,0.051173,0.054562,0.021640,0.030932,0.044818,0.085825,0.024358,0.025279,-0.007318,0.039600,0.070252,-0.015249,0.031381,-0.004169,-0.024536,0.039480,-0.011224,0.039529,0.031579,0.033466,0.090625,0.015788,0.014620,0.063003,0.013066,0.012091,-0.000163,0.040075,0.000929,-0.002175,0.007428,0.029128,-0.004759,-0.043936,-0.070674,-0.049749,-0.026534,0.073116,0.206879,0.381762,0.530191,0.692969,0.878239,1.004333,1.063528,1.081874,1.010313,0.882112,0.690803,0.563161,0.359136,0.199483,0.011063,-0.048055,-0.140624,-0.135392,-0.081046,-0.093727,-0.016475,0.055515,-0.010244,-0.017928,0.044526,-0.035747,0.036913,0.031909,0.023278,0.075931,0.023152,0.062939,0.010030,0.023346,0.051882,-0.002232,0.081017,0.011949,0.046814,0.056417,0.063258,0.014909,0.131746,0.083355,0.092572,0.032824,0.063100,0.045919,0.057972,0.087408,0.019525,0.084759,0.099311,0.069307,0.052230,0.020076,0.078846,0.130154,0.021509,0.107959,0.077259,0.121356,0.136340,0.156430,0.084230,0.157080,0.183182,0.210867,0.228890,0.193521,0.210000,0.228529,0.238945,0.239387,0.214708,0.282799,0.300864,0.253836,0.309149,0.245794,0.296509,0.344709,0.270458,0.311575,0.359232,0.373808,0.307000,0.327887,0.368906,0.307084,0.380867,0.343380,0.378945,0.364082,0.322746,0.390692,0.331157,0.354788,0.294467,0.322952,0.316752,0.288326,0.292029,0.295855,0.268586,0.275541,0.251083,0.253477,0.192739,0.211767,0.252906,0.221194,0.238257,0.165476,0.150231,0.187109,0.141084,0.184257,0.178911,0.099770,0.153150,0.131652,0.079302,0.108688,0.112927,0.076743,0.089231,0.092142,0.076019,0.029026,0.034512,0.036833,0.059500,0.012638,0.075118,0.016994,0.022699,0.023180,0.006208,0.086755,0.057836,0.026587,0.063600,0.002444,0.022656,0.030050,0.008039,0.023688,0.016345,-0.012560,-0.026107,-0.034653,0.005823,0.006694,0.020498,0.027397,0.008541,0.000896,0.019326,0.002263,0.004765,-0.006448,0.016037,0.030098,0.020936,0.005588,0.026569,-0.002692,0.008807,-0.013819,-0.000014,0.010218,-0.020559,-0.026104,0.027345,0.054733,0.053981,0.037494,-0.016047,0.038298,0.010672,-0.008160,-0.039743,0.003237,-0.023201,-0.018993,-0.035772,0.023111,0.001942,-0.020696,0.006906,0.011758,-0.045711,-0.014701,-0.004915,-0.010367,-0.019745,-0.027243,-0.012320,0.042212,-0.017727,0.037159,0.013279,-0.054558,-0.007543,0.004161,0.026535,-0.005504,-0.024696,0.006462,0.016677,0.002000,-0.000799,-0.001716,0.019636,-0.005992,-0.042285,0.004021,0.037262,0.052723,0.010984,-0.003227,0.021476,0.027473,0.015428,0.026248,-0.002908,0.038456,0.011465,0.049223,0.050743,0.052637,0.076345,0.055037,0.092268,0.104601,0.095219,0.122038,0.152187,0.148840,0.052814,0.145263,0.142862,0.178563,0.139555,0.164092,0.162170,0.122301,0.160067,0.181910,0.142954,0.224372,0.179256,0.165682,0.137321,0.116658,0.072052,0.083600,0.085617,0.106272,0.087215,0.070348,0.049446,0.028051,0.043077,0.032663,0.041538,0.053500,-0.011449,0.023701,0.050790,0.024232,0.026880,0.013841,0.070873,0.031764,0.005282,0.037913,0.064491,0.048875,0.016705,0.011857,-0.015429,0.062451,0.084481,-0.023013,0.042987,0.023340,0.004237,0.017193,-0.013197,0.040571,-0.009973,0.035333,0.049963,0.031552,-0.026118,0.063989,0.035077,0.044287,-0.012194,0.033562,0.004799,0.011239,0.016326,0.033636,0.007615,-0.049536,-0.066462,-0.018981,0.002975,0.070982,0.221384,0.363431,0.520965,0.728998,0.868832,1.003078,1.097228,1.068123,1.004044,0.898024,0.704907,0.530846,0.368119,0.157136,0.004979,-0.020916,-0.069689,-0.095732,-0.071957,-0.090931,-0.012188,0.057924,-0.020119,0.026861,0.026022,-0.038071,0.064689,0.018439,0.010589,0.066387,0.013081,0.026855,-0.000439,0.030573,0.074538,-0.020487,0.053665,0.022846,0.068661,0.094244,0.052253,0.018131,0.115506,0.055260,0.081919,0.028268,0.028902,0.044696,0.055824,0.072516,0.040262,0.107851,0.077089,0.084813,0.078409,0.013653,0.062585,0.098122,0.048370,0.083339,0.107030,0.100466,0.137396,0.144221,0.105892,0.153701,0.170946,0.214708,0.230595,0.168318,0.233709,0.215014,0.231833,0.246814,0.216719,0.252182,0.265485,0.264357,0.312082,0.261712,0.309867,0.332966,0.277454,0.295095,0.343512,0.384155,0.303864,0.344476,0.385900,0.318956,0.389164,0.339944,0.366027,0.338193,0.349738,0.367212,0.343098,0.354323,0.288784,0.311947,0.286672,0.294771,0.245293,0.314114,0.242741,0.297802,0.221406,0.262697,0.234518,0.202980,0.291985,0.208663,0.218748,0.191601,0.164578,0.192370,0.108673,0.176633,0.143010,0.088013,0.150320,0.141018,0.086030,0.117663,0.109487,0.067289,0.091052,0.058569,0.068653,0.062347,0.075924,0.067601,0.077052,0.008399,0.083963,0.024113,0.013255,0.068923,0.014523,0.066270,0.065209,0.050121,0.064173,-0.001375,0.006676,0.047886,0.044828,-0.008228,-0.000271,-0.030503,0.012970,-0.003917,0.002579,-0.004085,-0.002787,-0.023894,0.002663,-0.002851,0.013924,-0.023617,-0.013320,0.018239,0.000471,0.025530,0.041268,-0.000626,0.027432,0.021622,-0.014879,0.034184,-0.013222,0.001362,-0.009049,-0.038449,0.033264,0.064771,0.050035,0.039018,0.013923,0.002391,0.007811,-0.012319,-0.038882,0.022427,0.045296,-0.014579,-0.033784,-0.012580,-0.022039,-0.027690,0.006815,-0.024287,-0.021080,-0.005927,-0.002305,-0.003941,-0.011367,-0.014519,-0.030620,0.053373,-0.026653,0.001418,-0.032802,-0.024396,0.016208,0.031250,-0.001312,-0.009947,0.007219,-0.002738,0.016835,-0.013784,0.030700,0.025340,0.035025,-0.023752,-0.020045,0.031133,0.055257,0.054781,-0.034953,0.040194,-0.005903,0.018319,0.011642,0.026856,0.060047,0.010054,0.073121,0.067363,0.063331,0.091231,0.086963,0.083032,0.110064,0.052278,0.134688,0.132381,0.181233,0.080566,0.144384,0.138478,0.140824,0.147316,0.155351,0.158232,0.127776,0.178143,0.185628,0.182465,0.165255,0.194654,0.138408,0.113677,0.080886,0.083585,0.090349,0.076489,0.108132,0.109205,0.087239,0.047447,0.039106,0.046796,0.011330,0.056871,0.029635,0.021682,-0.001512,0.009653,0.033229,0.005432,0.016964,0.061501,0.033238,0.038991,0.046922,0.028629,0.059998,0.033388,0.006782,-0.011313,0.036976,0.060678,-0.019438,0.038703,-0.004064,0.041936,0.037685,-0.033044,0.052673,0.022869,0.047167,0.063979,0.037757,-0.021196,0.061903,0.023876,0.028871,0.008722,0.029559,0.034566,-0.013956,0.010782,0.030770,0.010776,-0.045984,-0.082196,-0.003287,-0.004153,0.068291,0.213128,0.411225,0.535343,0.700243,0.881326,1.016778,1.081609,1.092558,0.993823,0.900428,0.716445,0.544156,0.367535,0.200056,0.010851,-0.067113,-0.102707,-0.120525,-0.085173,-0.096645,-0.013115,0.043931,0.023961,0.023188,0.026731,-0.038467,0.029687,0.030523,0.024859,0.062804,0.023006,0.040484,-0.016344,0.032182,0.076950,-0.023644,0.087680,0.003222,0.046217,0.080747,0.060278,0.027769,0.093659,0.069726,0.070605,0.022593,0.027409,0.014726,0.041517,0.079166,0.038944,0.094273,0.087294,0.093685,0.079105,0.039425,0.062286,0.107403,0.028765,0.097954,0.097157,0.150965,0.112999,0.126278,0.093058,0.170074,0.180573,0.168675,0.212433,0.180456,0.207128,0.206291,0.245385,0.247073,0.232354,0.261868,0.292090,0.265364,0.298319,0.271251,0.311745,0.316715,0.312429,0.326301,0.361457,0.360523,0.344768,0.331825,0.361069,0.314106,0.339439,0.334261,0.397332,0.384009,0.328072,0.381030,0.329366,0.361078,0.314553,0.317703,0.336589,0.300279,0.300745,0.310368,0.275620,0.321636,0.225601,0.238825,0.210207,0.229840,0.224121,0.231448,0.247861,0.172795,0.154262,0.177116,0.129473,0.185548,0.204154,0.109882,0.179738,0.138776,0.114109,0.123301,0.097200,0.085272,0.108992,0.069745,0.049288,0.048413,0.057206,0.030097,0.036223,0.022241,0.045281,-0.012456,0.011004,0.049615,0.028276,0.055848,0.025358,0.055147,0.062782,0.028635,0.040096,0.022241,0.028293,0.015338,0.006799,-0.031432,0.006506,-0.000999,0.038592,0.034393,0.005703,-0.023600,-0.026912,0.009809,-0.004115,-0.046082,-0.000037,0.016102,0.001329,0.025409,0.052215,-0.036287,0.005902,-0.004504,0.020935,0.009018,0.005548,0.009236,0.017456,-0.033682,0.024243,0.054807,0.068674,0.054716,0.006321,0.003158,0.011425,-0.021238,-0.048000,0.007936,-0.006735,-0.045221,-0.015602,-0.010551,-0.014239,-0.008466,-0.015511,-0.026949,-0.055874,-0.009516,-0.014957,-0.043204,-0.003462,-0.028100,-0.023132,0.055043,-0.048540,0.002871,0.000036,-0.013861,-0.054993,-0.015946,0.033254,0.055160,0.004269,-0.050145,-0.026817,0.023430,0.002181,-0.021324,-0.012958,-0.009126,0.029595,0.003181,0.004243,0.008465,0.074931,0.011452,-0.025946,0.008190,0.003936,0.031236,0.011578,0.034768,0.055757,-0.011307,0.050233,0.041925,0.064119,0.098899,0.067823,0.081029,0.110203,0.078165,0.150041,0.116358,0.161386,0.082435,0.133656,0.127922,0.150018,0.118841,0.140492,0.167020,0.161623,0.151940,0.174252,0.157966,0.200745,0.183870,0.160055,0.125243,0.101130,0.069369,0.114974,0.103691,0.107543,0.110168,0.038630,0.057794,0.030882,0.056182,0.013426,0.059114,0.081390,-0.009839,0.036336,0.033235,0.025764,0.010121,0.005790,0.076694,0.036170,0.033205,0.032807,0.032904,0.026205,0.013296,0.007181,-0.044692,0.031582,0.075479,-0.013888,0.022282,0.043096,-0.017926,0.014982,0.001463,0.035509,0.047985,0.035171,0.065357,0.013626,0.002723,0.055382,0.029561,0.039278,0.003167,0.037755,0.031201,0.002262,-0.004245,0.023369,0.002741,-0.047615,-0.052530,-0.027928,-0.020232,0.089961,0.212312,0.401724,0.511181,0.717333,0.868900,0.995888,1.083819,1.096152,1.012109,0.897126,0.705456,0.552762,0.348001,0.159018,0.016986,-0.039346,-0.093909,-0.107682,-0.046912,-0.091591,-0.033987,0.063281,0.024167,0.040846,0.038062,-0.058417,0.041461,0.014295,0.007207,0.039724,0.018419,0.011427,-0.006825,0.043583,0.048681,-0.004871,0.068778,0.008538,0.054975,0.083607,0.047254,0.032465,0.089912,0.096460,0.066603,0.050582,0.030831,0.057489,0.083010,0.078391,0.090884,0.079488,0.105314,0.067547,0.056615,0.023816,0.055641,0.099023,0.056922,0.121598,0.067494,0.112287,0.145845,0.131259,0.103967,0.137306,0.146609,0.183161,0.194166,0.200019,0.267322,0.214004,0.245164,0.260290,0.242118,0.270541,0.280792,0.259186,0.301579,0.286548,0.305895,0.313004,0.297942,0.332533,0.351606,0.396223,0.341967,0.329691,0.379880,0.317677,0.353239,0.330391,0.369198,0.325856,0.327097,0.385671,0.329730,0.330216,0.300524,0.341407,0.307469,0.303612,0.277376,0.306433,0.233025,0.303288,0.256536,0.255421,0.233914,0.205024,0.266641,0.210940,0.243791,0.151130,0.131492,0.183443,0.116757,0.197633,0.176285,0.081733,0.175764,0.119906,0.100905,0.109674,0.115412,0.079401,0.076872,0.085041,0.071842,0.028351,0.065997,0.058083,0.063674,0.027814,0.041921,0.011899,0.026730,0.003841,0.002904,0.070108,0.032741,0.042348,0.051254,-0.023322,0.023637,0.040686,0.008755,0.027220,-0.005010,-0.006108,-0.002965,0.012107,0.000287,0.026326,-0.020359,-0.007344,0.032301,-0.007021,0.049649,-0.018843,0.004799,0.000203,-0.004660,0.006722,0.039443,-0.030594,0.019316,-0.019497,0.022493,0.047227,-0.004351,0.005358,0.014872,-0.038955,0.002125,0.075154,0.068979,0.062252,0.013685,0.012142,0.011977,-0.030056,-0.038484,0.016111,0.015733,-0.038180,-0.017791,-0.015019,-0.041885,0.029224,0.002866,-0.000560,-0.033103,-0.011348,0.005127,-0.008014,0.003669,-0.016097,-0.000803,0.036891,-0.040701,-0.011336,-0.015439,-0.017264,0.014231,0.040217,-0.000336,-0.013016,-0.015498,0.004420,0.012961,-0.013048,0.025560,0.020750,0.017548,-0.025671,-0.031643,0.014658,0.022259,0.051212,-0.037225,0.030379,0.009174,0.015631,0.011096,0.057572,0.043013,0.015875,0.063073,0.048912,0.072581,0.068185,0.063804,0.092034,0.097806,0.057870,0.113589,0.117286,0.166853,0.127010,0.149776,0.130159,0.158646,0.110161,0.142713,0.176306,0.149533,0.165875,0.177433,0.154064,0.167255,0.174318,0.150729,0.110593,0.080847,0.062916,0.116105,0.072136,0.104350,0.108220,0.050903,0.087110,0.021361,0.063584,-0.004137,0.054671,0.036709,-0.015017,0.019695,0.011817,0.020735,0.031157,-0.022142,0.040371,0.040219,0.044780,0.031488,0.031751,0.041491,0.010711,0.030711,-0.007333,0.057986,0.058753,-0.004384,0.018219,0.030544,0.000842,-0.008734,-0.001649,0.045861,0.019791,0.022462,0.052385,0.036550,0.006507,0.034658,0.024411,0.001618,0.008303,0.021436,0.009686,0.009123,0.004849,0.055470,-0.003084,-0.042152,-0.053010,0.000281,-0.010524,0.071387,0.210179,0.397434,0.523305,0.697706,0.889371,0.999050,1.094403,1.113298,1.033564,0.903590,0.722915,0.543302,0.323797,0.180174,-0.030850,-0.034767,-0.116869,-0.133971,-0.089598,-0.093823,-0.036824,0.052424,-0.006662,-0.002357,0.047018,-0.027787,0.056624,0.009981,0.014946,0.064776,-0.006299,0.029545,0.009384,-0.004811,0.073876,0.009120,0.080500,0.038300,0.045414,0.062715,0.049654,-0.015418,0.080108,0.068916,0.079489,0.006245,0.032142,0.026410,0.077465,0.062113,0.042123,0.105301,0.096506,0.068921,0.054157,0.042924,0.071785,0.130801,0.012479,0.120639,0.093868,0.136534,0.137194,0.131135,0.094366,0.145207,0.182389,0.185666,0.219863,0.155147,0.220919,0.192473,0.247277,0.249988,0.225365,0.265699,0.258540,0.257848,0.271115,0.245539,0.311994,0.320582,0.272951,0.329081,0.340518,0.367748,0.317279,0.324807,0.391646,0.309050,0.345935,0.372926,0.374933,0.379947,0.368599,0.342972,0.329644,0.348049,0.287002,0.303692,0.279827,0.299839,0.260124,0.306968,0.229648,0.292145,0.223843,0.253846,0.236970,0.171542,0.232587,0.205960,0.243691,0.167518,0.171531,0.214521,0.119338,0.207237,0.161661,0.105981,0.175343,0.147836,0.120495,0.104378,0.098167,0.074590,0.082909,0.050291,0.064752,0.048280,0.034941,0.039777,0.082834,0.025616,0.018667,0.006796,0.021713,0.050777,0.013171,0.061550,0.052186,0.049903,0.061507,-0.000320,0.017194,0.035293,0.038960,0.019062,0.027862,0.014724,0.012283,0.007790,-0.001625,0.046806,-0.008707,0.028655,-0.001865,-0.010789,0.016825,-0.030266,-0.003819,0.011562,-0.012666,0.001936,0.028739,0.006584,0.032290,0.004421,0.023619,0.029919,-0.016066,-0.022152,-0.005711,-0.010054,0.002597,0.051606,0.066639,0.017813,0.026652,-0.010015,-0.022119,-0.008011,-0.038385,0.040294,0.012330,-0.017931,-0.037123,0.012922,-0.007418,-0.000028,-0.005205,0.002029,-0.021091,-0.035731,0.005189,-0.010814,0.020812,-0.006541,-0.026803,0.015815,-0.046419,-0.032067,-0.025901,-0.008637,0.001075,0.016401,-0.013876,0.012622,0.016771,0.038884,0.017059,-0.012710,0.001832,-0.016473,-0.002806,0.062438,0.005572,-0.021060,0.000812,0.034345,-0.008643,0.003684,-0.007733,0.041854,0.019818,-0.057989,0.006438,0.032044,0.036460,0.019766,-0.023290,0.032322,-0.004521,-0.005669,-0.021432,0.024329,0.072512,0.018231,0.054580,0.032027,0.065749,0.060161,0.067655,0.097264,0.109639,0.083459,0.121132,0.132913,0.135236,0.111708,0.170259,0.117081,0.131740,0.123404,0.157664,0.180395,0.129328,0.125577,0.168955,0.165495,0.194936,0.190904,0.141584,0.134315,0.095086,0.025903,0.097486,0.069671,0.105722,0.109241,0.059491,0.058999,0.053402,0.038033,0.019600,0.041378,0.072818,-0.022028,0.013800,0.061897,0.049441,0.039973,-0.004090,0.070623,0.015280,0.014934,0.044566,0.033815,0.025662,0.024912,0.019953,0.004317,0.052773,0.063366,0.017165,0.016881,0.030926,0.008471,0.013684,-0.006916,0.032910,0.017842,0.024326,0.071055,0.020596,-0.009378,0.064172,0.035709,0.039212,0.001633,0.003122,0.029213,0.015381,0.005289,0.034878,0.023027,-0.075726,-0.081244,-0.036216,-0.014479,0.047593,0.220755,0.390334,0.530900,0.658347,0.873850,1.014859,1.115572,1.123689,1.048151,0.903823,0.726899,0.548075,0.355740,0.136784,0.027670,-0.028054,-0.125627,-0.151011,-0.106208,-0.057229,0.011965,0.041203,-0.003608,-0.012801,0.012153,-0.007672,-0.000361,0.026016,0.014482,0.060615,0.003519,0.050493,-0.004603,0.045414,0.052918,-0.003498,0.090972,0.026558,0.035874,0.071864,0.074211,0.020471,0.079757,0.067170,0.070440,0.026525,0.022217,0.032167,0.053547,0.100423,0.065433,0.119372,0.077858,0.084582,0.077691,0.024354,0.073164,0.143073,0.030330,0.098884,0.096256,0.112617,0.127616,0.142678,0.109622,0.147278,0.148884,0.202203,0.229151,0.182306,0.232492,0.221881,0.269501,0.234797,0.247009,0.260249,0.277278,0.257170,0.285633,0.298872,0.303089,0.308798,0.307871,0.330019,0.344101,0.384739,0.313518,0.339680,0.394948,0.299952,0.368702,0.354446,0.388794,0.361430,0.345148,0.343569,0.340775,0.356021,0.262833,0.311891,0.313862,0.324074,0.246272,0.325927,0.256965,0.302714,0.249146,0.241311,0.231418,0.190518,0.237424,0.194348,0.216642,0.175915,0.127314,0.187039,0.127226,0.200264,0.154111,0.107708,0.121754,0.123604,0.104368,0.102406,0.088453,0.071098,0.077721,0.072533,0.064335,0.016979,0.076783,0.038722,0.066195,0.021255,0.058803,0.032668,0.023483,0.038791,0.004255,0.057098,0.082689,0.013495,0.067895,0.000698,0.019002,0.025466,0.011752,0.032926,0.015614,-0.021998,-0.000216,0.008935,-0.002835,0.024149,0.014571,-0.014643,0.006823,-0.006680,-0.009645,-0.010449,-0.003531,0.006748,0.013630,0.026917,0.042042,0.008125,0.037379,-0.004527,0.011702,-0.000558,-0.031148,-0.005087,-0.000675,-0.064370,0.035642,0.045408,0.083922,0.048568,-0.022685,-0.018992,-0.002107,-0.008109,-0.001007,0.014533,0.010142,-0.008653,-0.030269,0.003636,0.001009,-0.017065,0.003028,-0.012579,-0.043396,-0.025953,-0.007943,0.000634,0.022762,-0.008376,-0.007790,0.056147,-0.034463,0.005560,0.016148,-0.011314,-0.035417,-0.017123,-0.000200,0.012022,-0.011341,-0.010749,-0.035074,-0.005903,-0.021217,0.034919,0.059000,-0.016331,-0.005588,-0.005223,-0.016753,0.034708,-0.010538,0.013060,0.020670,0.045522,-0.053122,0.015370,0.012214,0.040289,0.021436,-0.012684,0.017632,0.026298,0.019568,0.009064,0.025953,0.075892,0.009171,0.045449,0.036675,0.073589,0.094893,0.071540,0.064883,0.093316,0.043632,0.137381,0.145132,0.165986,0.094031,0.138805,0.163136,0.146789,0.143022,0.172431,0.187278,0.143852,0.147946,0.203500,0.140274,0.179183,0.192449,0.138064,0.127460,0.075777,0.090764,0.103420,0.085768,0.088347,0.113624,0.044007,0.057984,0.044139,0.057181,0.015686,0.045037,0.048726,-0.042312,0.002311,0.018741,0.027207,0.038578,0.016580,0.041191,0.054927,0.030644,0.066541,0.056546,0.056001,0.018403,0.027631,0.027912,0.058616,0.050898,0.001856,0.061962,0.010101,0.009124,0.009192,-0.018052,0.037985,0.016370,0.043874,0.059029,0.043001,0.007015,0.051206,0.018133,0.029926,0.009453,0.017645,0.038944,-0.023132,-0.014780,-0.012527,-0.004946,-0.056433,-0.063546,-0.049569,-0.003524,0.055170,0.221894,0.394215,0.531635,0.682253,0.864881,0.973287,1.071073,1.112167,1.024724,0.893343,0.731535,0.569211,0.336502,0.155912,-0.002650,-0.045643,-0.110295,-0.120065,-0.071065,-0.101182,-0.031649,0.085604,0.012287,-0.029771,0.047425,0.004087,0.023308,0.024424,0.033609,0.079859,0.045885,0.033879,0.003028,0.034280,0.046170,-0.038963,0.096330,-0.004621,0.036075,0.074155,0.031946,0.024156,0.095297,0.070597,0.107574,0.030789,0.052679,0.018802,0.059718,0.081454,0.066865,0.105516,0.077679,0.099163,0.078718,0.031488,0.102936,0.133891,0.044834,0.066380,0.088395,0.103554,0.139891,0.139546,0.083522,0.163820,0.159230,0.190901,0.199091,0.203502,0.229957,0.217742,0.240068,0.241811,0.221083,0.272993,0.255950,0.285548,0.300366,0.272551,0.316582,0.311751,0.291165,0.354866,0.337893,0.355591,0.301757,0.305302,0.370973,0.315408,0.346244,0.353131,0.364059,0.344862,0.319993,0.370650,0.349561,0.339807,0.281878,0.310633,0.312754,0.295619,0.272422,0.304145,0.241261,0.315450,0.238747,0.246935,0.254688,0.227543,0.206551,0.189084,0.237152,0.183501,0.168652,0.175033,0.119025,0.180934,0.156126,0.090691,0.140004,0.111311,0.096405,0.111117,0.121157,0.084950,0.126704,0.063513,0.070534,0.040548,0.074049,0.044891,0.055575,0.017871,0.037211,0.024375,0.036975,-0.011288,0.016580,0.081601,0.038648,0.034832,0.072903,0.000621,0.015689,0.026277,0.026344,0.039656,-0.003184,-0.003243,-0.024606,0.002531,0.018577,0.033663,-0.003737,-0.018692,0.016571,0.016483,0.031541,-0.025919,-0.002157,0.020134,0.007612,0.008842,-0.009135,-0.024152,0.032971,0.014836,0.030143,0.047856,-0.020518,0.003142,-0.011996,-0.047514,0.024966,0.044828,0.074440,0.029454,-0.006946,-0.003302,0.008303,-0.023984,-0.028979,0.030251,0.031507,-0.021606,-0.033148,0.005685,-0.011380,-0.029741,0.010269,0.042141,0.007490,-0.008399,-0.031691,-0.030222,0.009944,0.049933,-0.019135,0.038262,-0.026892,0.036088,0.008471,-0.030567,0.015913,0.031339,0.038172,-0.026940,-0.007041,0.034943,0.010815,0.034761,-0.002394,0.045084,0.002587,0.002150,0.013512,0.016771,0.053681,0.021078,0.048396,0.030159,0.071269,0.070306,0.066959,0.099941,0.124210,0.082401,0.128604,0.123964,0.155200,0.117107,0.117872,0.145988,0.148797,0.110998,0.181811,0.136629,0.142668,0.168780,0.192434,0.142383,0.169317,0.208026,0.133901,0.149011,0.072653,0.074249,0.105724,0.099495,0.103993,0.119985,0.038543,0.097411,0.020751,0.041955,0.013422,0.059368,0.044685,-0.005920,-0.000471,0.031519,0.045115,0.036790,-0.006718,0.047023,0.031854,0.043294,0.050109,0.030965,0.040976,0.023741,0.016041,0.002436,0.031740,0.068204,-0.010774,0.037886,0.008237,0.023455,-0.002654,-0.031675,0.037949,0.039853,0.047645,0.042472,0.034689,0.010242,0.062526,0.043442,-0.007085,0.003667,0.025158,0.006044,0.000867,0.013499,0.018335,0.015577,-0.072991,-0.041783,-0.072732,-0.004883,0.061466,0.201540,0.386257,0.536142,0.694288,0.872629,1.008035,1.060655,1.083959,1.000565,0.898005,0.693586,0.550821,0.359310,0.176715,0.014360,-0.057860,-0.138757,-0.126292,-0.082698,-0.086472,-0.015359,0.058301,0.008699,0.007138,0.031757,-0.004615,0.017877,0.062889,0.000517,0.061077,0.021512,0.051644,0.001228,0.047630,0.064031,-0.026959,0.108529,0.029651,0.060075,0.080917,0.048365,0.002643,0.115243,0.082495,0.095328,0.030323,-0.003640,0.028603,0.071129,0.088533,0.065911,0.085372,0.099843,0.073870,0.056257,0.032459,0.103120,0.103480,0.038053,0.093826,0.088767,0.083557,0.149210,0.143158,0.116134,0.159642,0.154592,0.173658,0.216883,0.202918,0.247659,0.210285,0.238282,0.250843,0.224359,0.232672,0.261041,0.252835,0.306838,0.240465,0.303603,0.319307,0.309477,0.339128,0.350594,0.378734,0.339015,0.331327,0.387816,0.330993,0.363599,0.356073,0.367227,0.372876,0.326505,0.366763,0.330952,0.364282,0.292197,0.329487,0.260721,0.285482,0.252009,0.325438,0.237954,0.299326,0.239690,0.236270,0.225997,0.202356,0.238857,0.204729,0.244998,0.168655,0.140254,0.199368,0.140962,0.193127,0.180906,0.102401,0.136048,0.138535,0.090882,0.113650,0.101984,0.079732,0.103107,0.092999,0.082393,0.049075,0.072699,0.026400,0.068192,0.030773,0.040471,0.024795,0.015647,0.025674,-0.002223,0.058886,0.034438,0.072645,0.072731,-0.010875,0.054776,-0.001667,0.038897,-0.030147,0.010422,-0.007880,0.016391,0.010116,0.021102,0.037510,0.005982,-0.020505,-0.013904,-0.007576,0.005027,-0.007111,-0.016330,-0.017083,0.006083,0.028376,0.003720,0.009066,0.018700,0.017880,-0.003456,0.038712,-0.037367,0.004140,-0.019656,-0.051185,0.031777,0.050740,0.101237,0.046216,-0.012283,0.014261,-0.000267,-0.024039,-0.013175,0.025902,-0.009375,-0.003178,-0.043311,-0.010336,-0.010274,-0.008276,-0.005563,0.011139,-0.043679,-0.023588,-0.010896,-0.043972,0.015725,0.020111,-0.021097,0.047647,-0.049979,0.021206,0.024978,-0.022242,0.026775,0.024707,0.018327,-0.041918,-0.002829,0.011448,0.057904,0.032851,-0.021249,0.021980,-0.002682,0.006083,0.023628,0.033911,0.070924,0.002556,0.049044,0.064593,0.068339,0.087585,0.053950,0.065172,0.116905,0.074717,0.135546,0.119573,0.155528,0.094996,0.153376,0.152400,0.137504,0.131158,0.172498,0.167966,0.137330,0.147187,0.191664,0.143808,0.146362,0.197494,0.146262,0.132348,0.081884,0.065193,0.089995,0.094749,0.091512,0.085444,0.070990,0.055918,0.032641,0.033222,-0.015560,0.074560,0.055147,-0.003307,0.012273,0.045017,0.036674,0.019803,0.015080,0.056264,0.064012,0.027902,0.030700,0.015476,0.048811,-0.007611,0.019251,-0.006648,0.056570,0.070701,0.001748,0.001947,0.051697,0.006373,0.015476,-0.015534,0.045712,0.028329,0.040662,0.044884,0.043739,0.011003,0.049634,0.031439,0.050439,0.029475,0.003161,0.009167,0.006981,0.002756,0.023822,-0.017213,-0.062114,-0.063792,0.003393,0.001475,0.061934,0.205879,0.379330,0.534988,0.709916,0.886873,1.031315,1.068734,1.097689,0.986246,0.889907,0.711540,0.533930,0.329415,0.172811,0.008351,-0.058468,-0.085273,-0.138298,-0.095862,-0.081000,-0.048856,0.069143,-0.018958,0.012068,0.030535,-0.003276,0.044001,0.038891,0.013985,0.068033,0.009751,0.051388,0.042742,0.028869,0.051482,-0.002151,0.087334,0.029975,0.072991,0.062425,0.059078,-0.003985,0.083847,0.090785,0.115974,0.027682,0.032513,0.033709,0.069384,0.081615,0.054997,0.127633,0.082959,0.085888,0.075525,0.069848,0.061404,0.116494,0.049247,0.107108,0.100227,0.130446,0.118689,0.133228,0.108069,0.139961,0.164954,0.214875,0.202140,0.175968,0.227768,0.246236,0.236159,0.235437,0.236800,0.273740,0.277348,0.270630,0.309321,0.280413,0.300934,0.354622,0.276172,0.328398,0.342714,0.343273,0.334591,0.322237,0.372726,0.332133,0.357703,0.346046,0.377099,0.395797,0.346859,0.367542,0.316303,0.321555,0.309691,0.282382,0.300431,0.298094,0.281675,0.324448,0.258669,0.337992,0.253304,0.248491,0.233018,0.231432,0.246443,0.199338,0.218627,0.157020,0.167442,0.204342,0.121154,0.196943,0.185954,0.085674,0.152799,0.144745,0.106316,0.109265,0.114410,0.074968,0.085779,0.069276,0.062016,0.025231,0.060788,0.063595,0.059118,0.026735,0.051000,0.001644,0.003392,0.021897,0.029543,0.075462,0.044476,0.063640,0.085378,-0.003015,0.004619,0.017798,0.028930,0.031743,0.010851,-0.031935,-0.016622,0.010445,-0.004995,0.027172,0.031334,-0.033846,-0.006781,0.009521,0.009876,-0.019797,0.031722,0.008622,0.017183,0.011489,0.064885,-0.034979,-0.004268,-0.006169,-0.002683,0.045303,-0.000389,0.009557,0.004103,-0.038606,0.038767,0.047688,0.051492,0.026413,0.001649,0.021698,0.019960,-0.009343,-0.010820,0.025943,-0.020505,-0.016182,-0.037393,0.013528,-0.036573,-0.004827,0.032429,-0.000031,-0.020385,-0.032673,0.027568,-0.001399,-0.016359,-0.013501,-0.024490,0.062707,-0.022083,-0.028596,-0.018486,-0.034113,-0.010538,0.023921,-0.004779,-0.033202,-0.013978,0.001283,-0.014693,-0.020203,-0.000059,0.032166,0.025753,-0.008175,0.003974,0.035045,0.035647,0.006410,-0.015646,0.018577,0.021928,0.013995,0.019521,0.026497,0.042796,0.010776,0.065606,0.024523,0.089261,0.071720,0.070260,0.041694,0.110860,0.081806,0.143783,0.118129,0.151972,0.063660,0.157237,0.163171,0.148749,0.118769,0.172268,0.153754,0.142159,0.170145,0.186406,0.116814,0.196323,0.185441,0.139422,0.129723,0.073300,0.074874,0.110931,0.087394,0.078335,0.114029,0.085954,0.096560,0.035091,0.042494,-0.011951,0.040258,0.071660,0.023059,0.017103,0.034089,0.035672,0.028689,-0.014631,0.062872,0.032279,0.025391,0.052123,0.012089,0.032058,0.014313,0.003034,-0.024025,0.032205,0.053804,-0.003946,0.021322,0.004644,0.000818,0.015514,-0.008892,0.053281,0.018981,0.019381,0.061855,0.044715,-0.022035,0.077526,0.016379,0.046362,0.008936,0.031483,0.013929,-0.001449,0.002035,0.044093,0.000800,-0.052150,-0.065260,-0.042000,0.001337,0.076777,0.218433,0.370740,0.532316,0.689572,0.882839,0.995842,1.077000,1.078983,0.994416,0.918941,0.730778,0.549243,0.356074,0.158867,0.012049,-0.068882,-0.079701,-0.103348,-0.095553,-0.099605,-0.030244,0.053997,0.014097,0.000858,0.035039,-0.019010,0.045088,0.040559,0.022359,0.067564,-0.013688,0.032426,0.017616,0.012295,0.066496,-0.018171,0.072772,0.004988,0.056930,0.042326,0.065188,0.026062,0.087666,0.103674,0.076701,-0.001321,0.054062,0.043430,0.058196,0.093353,0.048428,0.069107,0.128095,0.079288,0.069469,0.019402,0.092759,0.121294,0.043490,0.094327,0.090426,0.114881,0.164895,0.142795,0.070769,0.141863,0.148317,0.175161,0.188789,0.198278,0.259834,0.226713,0.228104,0.220292,0.248601,0.261842,0.281217,0.284360,0.309363,0.248667,0.277572,0.325480,0.250880,0.301843,0.354449,0.352205,0.323035,0.350393,0.394133,0.318832,0.375852,0.323420,0.399059,0.346165,0.353958,0.356200,0.309337,0.319777,0.318390,0.313314,0.283625,0.326653,0.297200,0.301028,0.247541,0.320154,0.257216,0.230252,0.232559,0.209438,0.221664,0.198150,0.222067,0.185455,0.157272,0.177477,0.119026,0.166721,0.170324,0.087804,0.149330,0.146475,0.104085,0.112679,0.133462,0.080743,0.083035,0.072884,0.064779,0.035399,0.057505,0.049773,0.058788,0.024450,0.048028,-0.005446,0.066628,0.030195,0.024460,0.072973,0.051207,0.052294,0.041762,0.008335,0.017447,0.018888,0.013715,0.037681,0.010499,-0.008371,-0.010280,0.014756,-0.013947,0.010037,0.023581,0.000234,0.018634,-0.004889,0.019811,-0.025953,0.007173,0.006846,-0.015044,0.017763,0.054669,0.005043,0.014599,-0.008599,-0.002045,-0.002712,-0.013236,0.041042,-0.004542,-0.028438,0.025562,0.080572,0.061258,0.030622,0.017200,0.019756,0.001719,-0.019281,-0.041505,0.017888,0.017290,-0.006499,-0.050193,0.007213,-0.009548,0.004577,0.001748,-0.004437,-0.032571,-0.004544,0.000160,-0.022034,0.020901,-0.022661,-0.013542,0.028045,-0.058802,-0.000062,-0.013919,0.003524,-0.001368,0.001390,-0.027587,-0.008752,0.024462,-0.012854,-0.033756,-0.004351,-0.006107,0.042439,0.000372,-0.025147,0.023141,0.060593,0.031366,-0.038708,0.014097,-0.007803,0.008230,-0.050342,0.007583,0.003866,0.064720,0.039674,-0.014873,0.017739,0.003057,0.001284,0.025616,0.025146,0.085212,0.005058,0.076571,0.066737,0.048999,0.081258,0.045674,0.098348,0.103960,0.050894,0.109322,0.118080,0.164876,0.091938,0.121115,0.152289,0.126850,0.115389,0.168819,0.178230,0.160278,0.161087,0.177356,0.169574,0.202597,0.193512,0.149549,0.117617,0.102234,0.078267,0.074468,0.072035,0.069117,0.093475,0.045821,0.057359,0.038943,0.047092,-0.007749,0.036951,0.055564,-0.034008,0.024592,0.038488,0.006265,0.017110,0.011464,0.039497,0.036414,0.046398,0.053792,0.041804,0.031752,0.033407,0.020970,-0.024280,0.038277,0.059080,0.003988,0.010245,0.010360,0.016032,0.004803,-0.026613,0.050416,0.020401,0.034238,0.069479,0.020494,-0.019657,0.046660,0.004751,0.014638,-0.038133,0.005806,-0.005856,0.035121,0.021409,0.014543,-0.007765,-0.051901,-0.064342,-0.016057,-0.007281,0.036481,0.210535,0.408576,0.542318,0.708816,0.874646,1.002976,1.070473,1.054601,0.990616,0.898890,0.730162,0.542766,0.350151,0.166300,0.001504,-0.077267,-0.083442,-0.112023,-0.097115,-0.089883,0.003141,0.052726,0.025895,0.013836,0.054780,-0.004542,0.037664,0.065013,0.035266,0.074323,0.030109,0.017517,0.038210,0.024977,0.055370,-0.009748,0.087407,0.027018,0.034699,0.062105,0.069667,0.013689,0.106402,0.079517,0.089488,0.030309,0.041077,0.032448,0.078952,0.079251,0.056068,0.088230,0.078201,0.090134,0.092318,0.031903,0.093390,0.113043,0.033837,0.099527,0.118554,0.119675,0.150724,0.124718,0.101039,0.137302,0.169466,0.181404,0.209860,0.191645,0.232175,0.217456,0.221616,0.225752,0.231825,0.219907,0.250264,0.260291,0.278772,0.273610,0.305771,0.321540,0.265708,0.310928,0.326886,0.350751,0.326548,0.317593,0.378335,0.318561,0.359887,0.351553,0.372631,0.359212,0.349795,0.369513,0.342651,0.349978,0.298389,0.335234,0.318271,0.311481,0.255211,0.328156,0.249111,0.279881,0.215710,0.231390,0.230462,0.213423,0.228966,0.204020,0.244638,0.154549,0.142189,0.179410,0.113433,0.163751,0.193688,0.098057,0.138144,0.116019,0.093695,0.084670,0.125270,0.080411,0.095891,0.087296,0.075726,0.056883,0.081968,0.043064,0.045507,0.001720,0.032279,0.011008,0.021224,0.036279,0.029946,0.060956,0.052436,0.080333,0.045298,-0.014949,0.040442,0.024538,0.007530,0.017069,0.004984,-0.008079,-0.028287,0.012829,0.002019,0.021941,-0.010518,0.000906,0.035482,0.013446,-0.006212,-0.002316,0.006671,-0.000479,0.016109,0.007582,0.032467,0.031131,0.015381,0.002380,0.042985,0.012446,-0.008828,0.016000,0.019988,-0.032247,0.014143,0.056143,0.093222,0.057917,0.009816,0.015221,-0.007463,-0.043967,-0.029552,0.010805,0.003948,-0.012544,-0.026595,0.003393,-0.017460,-0.017836,0.019933,0.006525,-0.023282,-0.002051,-0.024368,-0.009318,-0.017757,-0.016452,-0.005868,0.062188,-0.026497,0.000414,-0.033436,-0.030354,0.018990,0.041186,0.010573,-0.007880,0.002847,0.019145,0.007178,-0.047818,-0.003232,-0.014112,0.051121,-0.027237,0.006266,0.031119,0.045427,0.060690,0.005642,0.028116,0.017488,0.004327,0.015194,0.062281,0.056726,-0.001971,0.046352,0.040315,0.054111,0.068566,0.074023,0.087823,0.116762,0.079691,0.135393,0.135627,0.143841,0.095213,0.135316,0.129356,0.172293,0.103643,0.150788,0.164380,0.165322,0.171642,0.202289,0.167045,0.160790,0.163940,0.157102,0.116608,0.115484,0.067950,0.109614,0.083607,0.095907,0.073682,0.047939,0.084074,0.046882,0.035782,0.038729,0.050024,0.074933,-0.008948,0.007358,0.057466,0.028137,0.031741,0.028750,0.041562,0.010451,0.025221,0.045767,0.046821,0.055640,0.028125,0.041922,-0.000942,0.039712,0.063186,-0.018097,0.029414,0.023050,-0.000428,0.024709,0.009765,0.013342,0.018422,0.010052,0.055580,0.033448,0.024119,0.052773,0.015925,0.021325,0.029222,0.034211,0.028821,0.026254,0.015222,0.046085,0.005572,-0.044020,-0.053694,-0.015245,-0.013442,0.050058,0.216515,0.381786,0.506060,0.702707,0.865137,1.000943,1.046824,1.105066,1.031034,0.916332,0.735644,0.529666,0.364143,0.161078,0.040537,-0.041143,-0.101137,-0.090183,-0.091364,-0.101730,-0.036697,0.094744,-0.006089,-0.030271,0.017008,0.000047,0.039889,0.030296,-0.001936,0.070807,0.033091,0.039654,0.023846,0.032679,0.065641,0.020741,0.065268,0.033135,0.035757,0.082776,0.040026,-0.012249,0.109873,0.095678,0.112219,0.022510,0.047222,0.038169,0.055583,0.044150,0.054002,0.096017,0.093467,0.075984,0.067313,0.022853,0.103927,0.088452,0.033559,0.116913,0.110890,0.082652,0.130471,0.126626,0.132106,0.153048,0.195626,0.199087,0.209141,0.175269,0.241859,0.216662,0.228043,0.253487,0.226901,0.289825,0.271937,0.258724,0.274209,0.287013,0.289889,0.320489,0.319483,0.320277,0.349029,0.385776,0.333650,0.333644,0.384274,0.322932,0.362304,0.388808,0.379356,0.363837,0.324929,0.372103,0.322027,0.327994,0.285443,0.301990,0.316508,0.283996,0.259055,0.298953,0.207745,0.290984,0.233724,0.256830,0.255529,0.212712,0.234545,0.190746,0.225727,0.142630,0.154853,0.201097,0.122503,0.191378,0.177490,0.078213,0.129594,0.127911,0.069433,0.107152,0.082839,0.096116,0.097047,0.076241,0.065858,0.043022,0.057702,0.028724,0.047486,0.015538,0.030438,0.024927,0.022882,0.043461,0.008882,0.052886,0.054133,0.017710,0.059856,0.001629,0.025103,0.013289,0.050154,0.028655,0.000440,-0.030646,-0.015625,0.014167,0.020455,0.011420,0.000142,-0.036933,-0.000200,0.001723,0.020041,-0.012974,0.010822,0.006721,-0.006523,0.021359,0.040835,0.034349,0.024910,0.007938,-0.000223,0.020387,-0.017261,-0.000220,0.020511,-0.052195,0.032175,0.032292,0.079991,0.039028,-0.006210,0.020757,0.019341,-0.034198,0.006140,0.031368,0.012244,-0.047376,-0.032452,0.014568,-0.019949,-0.018420,0.022765,-0.008943,-0.025719,-0.006261,0.008466,-0.002082,0.006915,-0.006328,-0.003990,0.029703,-0.028398,0.021675,-0.001663,0.031364,-0.013410,-0.001413,0.013216,0.013464,0.007370,-0.006329,0.000438,0.016150,-0.017670,-0.016609,-0.013543,-0.004821,0.062420,-0.012840,-0.040225,-0.009887,0.028425,-0.005883,-0.027192,0.008299,0.024327,0.002245,-0.034890,0.003047,0.018451,0.027087,0.025905,-0.015168,0.052138,-0.007262,0.049590,0.015241,0.030680,0.082661,-0.025600,0.035403,0.047998,0.082171,0.069899,0.035976,0.066525,0.079380,0.084287,0.143265,0.132558,0.183186,0.103512,0.156526,0.148072,0.142683,0.115542,0.144579,0.197193,0.184205,0.149409,0.199299,0.176908,0.173639,0.212915,0.123917,0.145957,0.110945,0.048397,0.101947,0.061418,0.087819,0.063942,0.080536,0.089219,0.023698,0.028988,0.000181,0.060122,0.048172,-0.021077,-0.030308,0.017438,0.037091,0.035872,0.032786,0.051504,0.040390,0.035033,0.030469,0.017269,0.019666,0.009796,0.027147,-0.004582,0.039179,0.078186,-0.000384,0.047514,0.024606,0.024209,0.011245,-0.020623,0.018780,0.054417,0.052272,0.051479,0.027621,0.009772,0.066289,0.033127,0.031234,0.012147,0.048977,0.004399,-0.001351,-0.004989,0.020920,-0.000650,-0.050843,-0.065325,-0.005672,-0.013506,0.075725,0.190588,0.385112,0.528021,0.701612,0.888712,1.018288,1.088878,1.099574,1.032651,0.870950,0.731101,0.573423,0.364951,0.165381,0.030758,-0.083581,-0.126954,-0.112703,-0.090572,-0.123700,-0.043502,0.098789,0.012756,0.010818,0.051971,-0.019207,0.028547,0.054577,0.005528,0.070155,0.019387,0.044296,0.006602,0.050055,0.064421,0.022331,0.081539,0.032443,0.061413,0.076420,0.060686,0.029307,0.068195,0.088664,0.086304,0.041480,0.022042,0.053551,0.069472,0.068685,0.046466,0.090731,0.102000,0.079549,0.052394,0.007364,0.092601,0.109672,0.039948,0.085682,0.077465,0.128052,0.106885,0.135071,0.094304,0.116782,0.156645,0.192238,0.191328,0.205146,0.236413,0.228849,0.237495,0.220318,0.254705,0.275723,0.243805,0.251698,0.316262,0.283988,0.304612,0.336836,0.288830,0.304260,0.351376,0.336549,0.349679,0.307821,0.362503,0.344633,0.348210,0.352648,0.370175,0.366839,0.328401,0.390674,0.344150,0.338238,0.309234,0.303927,0.314852,0.328405,0.245442,0.291296,0.240451,0.300297,0.258311,0.256377,0.259133,0.193455,0.255506,0.213811,0.230751,0.194004,0.151433,0.216677,0.124519,0.161701,0.193912,0.096921,0.141561,0.134406,0.092192,0.140729,0.105086,0.115219,0.072681,0.078505,0.074203,0.038103,0.074413,0.073707,0.048615,0.004928,0.031377,0.042765,0.032052,0.045942,0.023654,0.055862,0.066107,0.044600,0.091420,-0.005803,0.053211,0.026086,0.020953,0.016467,0.004337,-0.008332,0.034003,-0.022750,0.027987,0.019981,-0.011215,0.007767,-0.017949,0.006682,0.035219,-0.021353,-0.003017,0.022217,-0.026789,0.008496,0.019145,0.007394,0.017403,-0.015470,0.011967,0.029175,-0.005513,-0.001468,0.015726,-0.045089,0.026124,0.045607,0.048135,0.031934,-0.001573,0.003821,0.003829,0.009180,-0.060890,0.019524,0.022880,-0.056556,-0.009716,-0.011949,0.009851,-0.003028,0.015294,0.007203,-0.015374,-0.034631,0.024966,0.007470,-0.028576,-0.010494,-0.002691,0.052543,-0.026341,0.017524,-0.012078,-0.010206,0.009948,-0.009061,0.037725,0.007241,-0.016496,-0.026112,0.006640,0.023109,0.005261,0.008922,-0.024103,-0.026144,0.032600,0.049642,-0.022086,-0.049727,-0.016811,-0.007345,0.007605,-0.024021,-0.021920,0.020834,0.010255,-0.052660,0.005870,-0.002284,0.036193,0.028830,-0.017147,0.038424,-0.001172,-0.014929,-0.004892,0.031662,0.044718,0.012090,0.054496,0.047815,0.045622,0.076301,0.029102,0.067687,0.105463,0.056913,0.121277,0.112090,0.124578,0.083585,0.182940,0.147920,0.149097,0.124029,0.141800,0.172625,0.131835,0.166593,0.196839,0.134023,0.170665,0.194032,0.166225,0.133987,0.094897,0.070150,0.098629,0.068936,0.086961,0.100851,0.041512,0.094961,0.023614,0.057844,0.028715,0.052372,0.069103,0.002847,-0.011099,0.022501,0.027386,0.042514,-0.009580,0.068042,0.032092,0.061161,0.027918,0.041966,0.027326,0.027494,0.003537,-0.007712,0.043746,0.062389,0.015722,0.047427,0.021417,0.034936,0.000575,-0.028705,0.030335,0.009466,0.055355,0.075211,0.040928,-0.022014,0.039360,0.056377,0.025308,-0.017790,0.012121,-0.015751,-0.003300,-0.001619,0.031455,0.036558,-0.065501,-0.083485,-0.047185,-0.017995,0.057661,0.214391,0.373091,0.523625,0.721543,0.870627,1.009032,1.047050,1.074935,1.026116,0.904066,0.733509,0.560684,0.358144,0.176372,-0.004465,-0.067858,-0.080939,-0.123376,-0.110416,-0.092171,-0.032619,0.056283,0.009072,0.004957,0.046250,-0.018419,0.057474,0.050234,0.008353,0.056029,-0.007954,0.034007,0.006603,0.015865,0.035569,-0.010910,0.064050,0.008627,0.043381,0.049063,0.073615,0.037070,0.101371,0.087107,0.092092,0.036656,0.004289,0.065366,0.064210,0.067815,0.052111,0.084938,0.094534,0.069420,0.045864,0.028451,0.062995,0.138317,0.045775,0.107055,0.078543,0.113731,0.115913,0.139963,0.095873,0.158509,0.174288,0.194252,0.208669,0.157754,0.238934,0.212006,0.247174,0.240894,0.229502,0.275826,0.259372,0.288761,0.287018,0.279328,0.333010,0.310949,0.286062,0.298759,0.318128,0.347389,0.337788,0.319526,0.363548,0.317954,0.336114,0.321223,0.355820,0.384326,0.340473,0.373713,0.307624,0.356674,0.323448,0.308681,0.289026,0.309248,0.265042,0.303188,0.231381,0.284801,0.215553,0.214243,0.237937,0.181051,0.248708,0.200694,0.245748,0.162193,0.182224,0.202778,0.126926,0.179973,0.166760,0.127962,0.150952,0.115218,0.094286,0.121834,0.111025,0.081517,0.085975,0.056752,0.052236,0.047149,0.082211,0.054563,0.058996,0.020801,0.045470,-0.023820,0.001991,0.012758,0.047222,0.070150,0.048046,0.056330,0.039906,0.019168,0.021624,0.042841,-0.000054,0.049460,-0.002874,-0.004279,0.001919,0.013899,0.034670,0.048581,-0.008258,-0.013649,0.035893,-0.001267,0.031633,-0.026460,-0.007990,0.020463,0.005031,0.038585,0.039928,0.004129,0.026679,0.003052,0.024456,0.031100,-0.024718,-0.015151,0.026701,-0.068324,0.017731,0.035066,0.068463,0.069198,0.011483,0.018015,-0.001084,-0.010263,-0.035664,0.052936,-0.006168,-0.010643,-0.043616,0.004002,-0.016039,-0.029858,-0.003042,-0.003096,-0.030367,-0.018938,-0.022408,-0.055374,-0.034495,-0.001849,0.027289,0.057813,-0.054172,-0.001058,0.032390,0.009015,-0.035604,-0.009393,0.038023,0.013178,-0.013083,-0.008995,0.024032,0.034815,0.067412,0.005412,0.050396,0.035504,0.026970,0.008331,0.022455,0.072392,0.008712,0.036569,0.047787,0.056367,0.065638,0.083183,0.066597,0.134944,0.074542,0.116313,0.124973,0.155807,0.103887,0.177344,0.162661,0.127918,0.128055,0.212351,0.180167,0.163580,0.175202,0.174197,0.158203,0.184080,0.209844,0.158626,0.167145,0.098133,0.049366,0.093795,0.080405,0.106534,0.101401,0.064899,0.063507,0.020939,0.061831,0.015021,0.026496,0.053531,-0.008185,0.004034,0.045488,0.007930,0.016134,0.011864,0.080274,0.044072,0.025093,0.047210,0.065898,0.018570,0.006674,0.002831,-0.026737,0.037864,0.063488,-0.023866,0.042386,0.045407,0.009517,0.016187,-0.043047,0.046250,0.032178,0.012795,0.037823,0.027395,0.029961,0.049109,0.025625,0.019225,-0.018350,0.016667,0.022805,0.011692,0.015107,0.019936,0.016558,-0.044081,-0.061299,-0.019292,-0.024272,0.089713,0.208651,0.403709,0.568891,0.705289,0.877491,1.014356,1.055298,1.086225,1.015403,0.903336,0.700096,0.553696,0.384105,0.179709,0.042679,-0.055998,-0.109938,-0.114475,-0.085769,-0.085338,-0.006001,0.083990,0.023580,0.016725,0.034548,-0.005801,0.009805,0.023259,0.040526,0.056435,0.012094,0.021634,-0.003080,0.049879,0.051838,-0.002500,0.066094,0.009165,0.054593,0.086392,0.058271,-0.003784,0.116098,0.050254,0.096200,0.033414,0.047687,0.035881,0.088582,0.079750,0.057738,0.115945,0.098383,0.061853,0.072923,0.030128,0.079633,0.126670,0.055084,0.114360,0.072623,0.113117,0.124184,0.139979,0.089412,0.159413,0.159895,0.178278,0.194524,0.169457,0.220604,0.190889,0.243357,0.265464,0.196175,0.260114,0.283154,0.252237,0.309480,0.282693,0.335031,0.318889,0.250648,0.303704,0.359278,0.352863,0.354231,0.355986,0.375786,0.315927,0.360978,0.345417,0.370357,0.338735,0.314599,0.353860,0.310058,0.327244,0.288427,0.323389,0.280792,0.292193,0.275788,0.342513,0.234330,0.311907,0.228325,0.282051,0.200607,0.209309,0.264059,0.221466,0.254364,0.173885,0.161701,0.195985,0.098157,0.170490,0.164546,0.104013,0.146932,0.154995,0.093920,0.100927,0.086307,0.094433,0.076254,0.083853,0.049521,0.041008,0.041206,0.056106,0.070794,0.018667,0.043344,0.018333,0.021210,0.027107,0.034174,0.034746,0.046027,0.060028,0.036073,0.012926,0.031666,0.026304,-0.015514,0.012869,0.019885,-0.024235,0.002092,0.014687,0.026058,0.025485,-0.000820,-0.007718,-0.003668,0.015341,-0.004716,-0.012132,0.007754,-0.001204,0.025454,0.026875,0.007266,0.030365,0.015761,0.008337,-0.007760,0.019622,-0.021605,-0.006916,-0.000505,-0.032187,0.038235,0.039814,0.077529,-0.011157,0.033822,0.019912,0.022803,-0.006115,-0.006153,-0.000361,0.017081,-0.018377,-0.022066,0.008349,-0.021748,0.000602,0.022225,-0.045824,-0.005085,-0.038072,-0.008805,-0.014861,-0.011640,-0.015877,-0.045708,0.056072,-0.043980,-0.012686,0.019395,0.032212,-0.019920,0.016320,-0.003658,0.021191,-0.013146,-0.027705,-0.030068,-0.001446,-0.002172,-0.000579,0.011064,0.023511,0.004305,-0.011848,-0.007996,-0.014118,0.021963,0.014371,0.007199,0.001661,0.001746,0.036910,-0.004793,0.008291,-0.017333,-0.012433,0.022916,0.020387,-0.010252,0.022155,-0.000311,0.018191,-0.014584,0.003938,-0.002914,-0.001183,0.002455,0.005721,-0.000784,0.009884,-0.004917,0.022536,0.019131,-0.013559,-0.013341,0.006952,0.005531,0.008203,-0.007060,0.006812,0.003825,-0.019279,-0.001290,0.004514,0.015452,-0.013588,-0.014419,0.001702,-0.002637,0.003665,0.001115,0.016042,-0.004521,-0.010837,-0.010269,0.008641,-0.004014,0.015117,-0.004797,0.025144,0.014560,-0.013369,0.014090,0.018073,-0.013762,-0.012603,0.011829,-0.011621,0.029654,0.012738,-0.013915,-0.014559,-0.004623,0.014340,-0.021392,0.007260,-0.019620,-0.004879,-0.005910,0.009193,0.012948,-0.006571,0.027757,0.010335,-0.006493,-0.003923,-0.017822,-0.010429,-0.005731,-0.012393,-0.000175,0.011375,0.000246,-0.006422,0.024333,-0.002909,-0.002892,0.014486,-0.014105,-0.011253,-0.008009,-0.000294,0.003397,-0.010642,0.002657,-0.000056,-0.002143,-0.020272,0.006222,0.003619,0.029845,-0.004773,-0.014649,-0.011853,-0.037560,0.009552,0.041192,-0.008106,-0.011956,-0.029744,0.008028,0.008550,0.003798,-0.000072,0.011069,-0.002552,-0.013927,0.023794,0.008963,-0.013515,0.006247,-0.002210,0.001832,-0.001221,-0.015290,0.008017,-0.006775,-0.009056,-0.005276,0.027118,0.018933,-0.021767,-0.020209,0.008567,0.015139,0.002685,-0.005098,0.003525,0.011651,0.023064,-0.030861,-0.005168,0.000169,0.023930,0.002479,0.029384,0.029438,0.012923,-0.033256,0.014665,-0.003748,0.006553,-0.009915,-0.014696,-0.019625,0.008363,-0.012466,-0.023454,0.000871,0.024118,-0.024436,0.019770,0.009577,-0.008458,0.003874,-0.008356,0.008800,0.007759,-0.024015,-0.002259,0.006112,-0.000292,0.014031,-0.000484,0.002740,-0.005102,-0.003720,-0.016496,0.001221,0.012534,-0.008912,-0.013204,-0.026805,0.010157,0.019745,-0.012338,-0.007465,-0.010956,-0.006850,0.018893,0.021723,0.028733,0.009641,-0.001438,-0.003043,-0.007419,-0.023270,0.024036,0.003711,-0.012398,0.008346,-0.004357,-0.018255,-0.000777,-0.004005,0.028671,-0.004477,0.002757,0.019244,-0.022288,-0.004566,-0.007164,0.008961,-0.000315,0.003709,0.029833,-0.005190,-0.009452,0.014162,0.028107,-0.021269,-0.004391,-0.002368,-0.013810,-0.010008,-0.013550,0.006530,0.010973,0.028095,-0.016173,-0.003741,-0.024493
